PrYVO_05,intensity,PrYVO_05_90,intensity
5.02343028,4380,5.02343028,4438
5.04969085,4319,5.04969085,4488
5.07595142,4439,5.07595142,4442
5.10221199,4236,5.10221199,4351
5.12847256,4277,5.12847256,4471
5.15473313,4327,5.15473313,4379
5.1809937,4320,5.1809937,4350
5.20725427,4259,5.20725427,4357
5.23351484,4250,5.23351484,4302
5.25977541,4177,5.25977541,4292
5.28603598,4216,5.28603598,4376
5.31229655,4111,5.31229655,4262
5.33855712,4288,5.33855712,4258
5.36481769,4236,5.36481769,4256
5.39107826,4155,5.39107826,4227
5.41733883,4090,5.41733883,4182
5.4435994,4097,5.4435994,4243
5.46985997,4228,5.46985997,4275
5.49612054,4057,5.49612054,4121
5.52238111,3976,5.52238111,4079
5.54864168,4049,5.54864168,4185
5.57490225,4101,5.57490225,4209
5.60116282,4028,5.60116282,4130
5.62742339,4089,5.62742339,4160
5.65368396,4048,5.65368396,4050
5.67994453,4028,5.67994453,4224
5.7062051,4009,5.7062051,4080
5.73246567,4013,5.73246567,4092
5.75872624,3896,5.75872624,4139
5.78498681,4036,5.78498681,3996
5.81124738,4033,5.81124738,4093
5.83750795,3957,5.83750795,4122
5.86376852,3950,5.86376852,4145
5.89002909,3990,5.89002909,4044
5.91628966,4000,5.91628966,4076
5.94255023,3886,5.94255023,4122
5.9688108,3903,5.9688108,4028
5.99507137,3890,5.99507137,4018
6.02133194,3974,6.02133194,4063
6.04759251,3909,6.04759251,4102
6.07385308,3958,6.07385308,4014
6.10011365,4003,6.10011365,3990
6.12637422,3943,6.12637422,3902
6.15263479,4014,6.15263479,3916
6.17889536,3865,6.17889536,3957
6.20515593,3953,6.20515593,4106
6.2314165,3859,6.2314165,3946
6.25767707,3892,6.25767707,3954
6.28393764,3824,6.28393764,3869
6.31019821,3882,6.31019821,3856
6.33645878,3945,6.33645878,3839
6.36271935,3860,6.36271935,3950
6.38897992,3928,6.38897992,3897
6.41524049,3876,6.41524049,4060
6.44150106,3860,6.44150106,3799
6.46776163,3973,6.46776163,3921
6.4940222,3852,6.4940222,3880
6.52028277,3933,6.52028277,3819
6.54654334,3845,6.54654334,3827
6.57280391,3848,6.57280391,3868
6.59906448,3890,6.59906448,3988
6.62532505,3798,6.62532505,3937
6.65158562,3829,6.65158562,3886
6.67784619,3821,6.67784619,3842
6.70410676,3721,6.70410676,3979
6.73036733,3740,6.73036733,3770
6.7566279,3682,6.7566279,3914
6.78288847,3792,6.78288847,3892
6.80914904,3780,6.80914904,3863
6.83540961,3656,6.83540961,3695
6.86167018,3732,6.86167018,3784
6.88793075,3704,6.88793075,3726
6.91419132,3784,6.91419132,3772
6.94045189,3708,6.94045189,3855
6.96671246,3677,6.96671246,3807
6.99297303,3738,6.99297303,3916
7.0192336,3677,7.0192336,3795
7.04549417,3636,7.04549417,3766
7.07175474,3692,7.07175474,3825
7.09801531,3677,7.09801531,3719
7.12427588,3697,7.12427588,3805
7.15053645,3627,7.15053645,3713
7.17679702,3667,7.17679702,3848
7.20305759,3719,7.20305759,3699
7.22931816,3554,7.22931816,3694
7.25557873,3644,7.25557873,3739
7.2818393,3529,7.2818393,3806
7.30809987,3634,7.30809987,3792
7.33436044,3571,7.33436044,3692
7.36062101,3784,7.36062101,3709
7.38688158,3590,7.38688158,3768
7.41314215,3591,7.41314215,3619
7.43940272,3603,7.43940272,3706
7.46566329,3643,7.46566329,3698
7.49192386,3480,7.49192386,3675
7.51818443,3639,7.51818443,3753
7.544445,3591,7.544445,3785
7.57070557,3546,7.57070557,3751
7.59696614,3492,7.59696614,3656
7.62322671,3542,7.62322671,3630
7.64948728,3539,7.64948728,3563
7.67574785,3548,7.67574785,3553
7.70200842,3519,7.70200842,3686
7.72826899,3496,7.72826899,3659
7.75452956,3485,7.75452956,3632
7.78079013,3554,7.78079013,3648
7.8070507,3611,7.8070507,3579
7.83331127,3615,7.83331127,3600
7.85957184,3518,7.85957184,3726
7.88583241,3486,7.88583241,3648
7.91209298,3578,7.91209298,3572
7.93835355,3423,7.93835355,3570
7.96461412,3421,7.96461412,3519
7.99087469,3480,7.99087469,3636
8.01713526,3509,8.01713526,3621
8.04339583,3417,8.04339583,3559
8.0696564,3408,8.0696564,3543
8.09591697,3470,8.09591697,3567
8.12217754,3579,8.12217754,3609
8.14843811,3612,8.14843811,3548
8.17469868,3413,8.17469868,3484
8.20095925,3508,8.20095925,3441
8.22721982,3382,8.22721982,3522
8.25348039,3460,8.25348039,3534
8.27974096,3485,8.27974096,3501
8.30600153,3437,8.30600153,3483
8.3322621,3354,8.3322621,3542
8.35852267,3443,8.35852267,3555
8.38478324,3419,8.38478324,3549
8.41104381,3472,8.41104381,3395
8.43730438,3358,8.43730438,3556
8.46356495,3420,8.46356495,3472
8.48982552,3480,8.48982552,3536
8.51608609,3320,8.51608609,3612
8.54234666,3336,8.54234666,3472
8.56860723,3323,8.56860723,3486
8.5948678,3404,8.5948678,3581
8.62112837,3316,8.62112837,3566
8.64738894,3371,8.64738894,3337
8.67364951,3299,8.67364951,3594
8.69991008,3427,8.69991008,3327
8.72617065,3460,8.72617065,3436
8.75243122,3484,8.75243122,3384
8.77869179,3456,8.77869179,3431
8.80495236,3434,8.80495236,3399
8.83121293,3343,8.83121293,3420
8.8574735,3413,8.8574735,3399
8.88373407,3419,8.88373407,3415
8.90999464,3197,8.90999464,3503
8.93625521,3219,8.93625521,3367
8.96251578,3295,8.96251578,3367
8.98877635,3271,8.98877635,3368
9.01503692,3291,9.01503692,3438
9.04129749,3365,9.04129749,3314
9.06755806,3257,9.06755806,3430
9.09381863,3234,9.09381863,3284
9.1200792,3178,9.1200792,3305
9.14633977,3243,9.14633977,3290
9.17260034,3362,9.17260034,3254
9.19886091,3226,9.19886091,3318
9.22512148,3240,9.22512148,3270
9.25138205,3261,9.25138205,3222
9.27764262,3313,9.27764262,3275
9.30390319,3220,9.30390319,3318
9.33016376,3193,9.33016376,3252
9.35642433,3193,9.35642433,3269
9.3826849,3223,9.3826849,3166
9.40894547,3273,9.40894547,3247
9.43520604,3092,9.43520604,3314
9.46146661,3184,9.46146661,3254
9.48772718,3268,9.48772718,3384
9.51398775,3204,9.51398775,3220
9.54024832,3224,9.54024832,3234
9.56650889,3194,9.56650889,3121
9.59276946,3179,9.59276946,3280
9.61903003,3130,9.61903003,3190
9.6452906,3125,9.6452906,3192
9.67155117,3213,9.67155117,3234
9.69781174,3106,9.69781174,3246
9.72407231,3167,9.72407231,3281
9.75033288,3094,9.75033288,3175
9.77659345,3123,9.77659345,3214
9.80285402,3058,9.80285402,3189
9.82911459,3171,9.82911459,3259
9.85537516,3118,9.85537516,3185
9.88163573,3128,9.88163573,3170
9.9078963,3142,9.9078963,3170
9.93415687,3119,9.93415687,3217
9.96041744,3127,9.96041744,3191
9.98667801,3100,9.98667801,3093
10.01293858,3018,10.01293858,3031
10.03919915,3086,10.03919915,3078
10.06545972,3028,10.06545972,3214
10.09172029,3134,10.09172029,3120
10.11798086,3027,10.11798086,3228
10.14424143,3181,10.14424143,3087
10.170502,2987,10.170502,3044
10.19676257,3124,10.19676257,3124
10.22302314,3096,10.22302314,3161
10.24928371,2981,10.24928371,3102
10.27554428,3076,10.27554428,3100
10.30180485,3078,10.30180485,3044
10.32806542,2958,10.32806542,3081
10.35432599,3075,10.35432599,3080
10.38058656,3090,10.38058656,3075
10.40684713,2982,10.40684713,3101
10.4331077,3083,10.4331077,3072
10.45936827,2997,10.45936827,3027
10.48562884,3018,10.48562884,3114
10.51188941,2993,10.51188941,2985
10.53814998,2978,10.53814998,3098
10.56441055,2956,10.56441055,3046
10.59067112,2924,10.59067112,3059
10.61693169,2942,10.61693169,3064
10.64319226,2910,10.64319226,2986
10.66945283,2997,10.66945283,3013
10.6957134,3038,10.6957134,3050
10.72197397,3051,10.72197397,2957
10.74823454,2879,10.74823454,3027
10.77449511,2901,10.77449511,2936
10.80075568,2994,10.80075568,3044
10.82701625,2896,10.82701625,3100
10.85327682,2949,10.85327682,3050
10.87953739,2985,10.87953739,3001
10.90579796,2893,10.90579796,2950
10.93205853,2883,10.93205853,3037
10.9583191,2918,10.9583191,2952
10.98457967,2867,10.98457967,3046
11.01084024,2995,11.01084024,3003
11.03710081,2839,11.03710081,3000
11.06336138,2890,11.06336138,2881
11.08962195,2803,11.08962195,2944
11.11588252,2869,11.11588252,3026
11.14214309,2826,11.14214309,2832
11.16840366,2805,11.16840366,2813
11.19466423,2918,11.19466423,2924
11.2209248,2839,11.2209248,2975
11.24718537,2895,11.24718537,2930
11.27344594,2894,11.27344594,2855
11.29970651,2925,11.29970651,2963
11.32596708,2804,11.32596708,3018
11.35222765,2736,11.35222765,2830
11.37848822,2868,11.37848822,2883
11.40474879,2855,11.40474879,2804
11.43100936,2668,11.43100936,2826
11.45726993,2833,11.45726993,2896
11.4835305,2743,11.4835305,2877
11.50979107,2776,11.50979107,2819
11.53605164,2838,11.53605164,2808
11.56231221,2822,11.56231221,2809
11.58857278,2802,11.58857278,2806
11.61483335,2802,11.61483335,2855
11.64109392,2726,11.64109392,2835
11.66735449,2786,11.66735449,2888
11.69361506,2684,11.69361506,2757
11.71987563,2689,11.71987563,2832
11.7461362,2815,11.7461362,2877
11.77239677,2734,11.77239677,2799
11.79865734,2756,11.79865734,2879
11.82491791,2827,11.82491791,2731
11.85117848,2759,11.85117848,2900
11.87743905,2777,11.87743905,2715
11.90369962,2691,11.90369962,2796
11.92996019,2751,11.92996019,2678
11.95622076,2724,11.95622076,2730
11.98248133,2735,11.98248133,2785
12.0087419,2773,12.0087419,2687
12.03500247,2641,12.03500247,2792
12.06126304,2701,12.06126304,2825
12.08752361,2791,12.08752361,2736
12.11378418,2702,12.11378418,2820
12.14004475,2688,12.14004475,2833
12.16630532,2777,12.16630532,2719
12.19256589,2718,12.19256589,2767
12.21882646,2631,12.21882646,2677
12.24508703,2626,12.24508703,2696
12.2713476,2641,12.2713476,2769
12.29760817,2689,12.29760817,2787
12.32386874,2606,12.32386874,2771
12.35012931,2548,12.35012931,2691
12.37638988,2570,12.37638988,2668
12.40265045,2575,12.40265045,2675
12.42891102,2708,12.42891102,2737
12.45517159,2683,12.45517159,2704
12.48143216,2558,12.48143216,2605
12.50769273,2617,12.50769273,2641
12.5339533,2612,12.5339533,2683
12.56021387,2471,12.56021387,2703
12.58647444,2599,12.58647444,2664
12.61273501,2544,12.61273501,2663
12.63899558,2767,12.63899558,2685
12.66525615,2640,12.66525615,2697
12.69151672,2623,12.69151672,2642
12.71777729,2554,12.71777729,2765
12.74403786,2527,12.74403786,2790
12.77029843,2573,12.77029843,2688
12.796559,2513,12.796559,2663
12.82281957,2518,12.82281957,2663
12.84908014,2602,12.84908014,2782
12.87534071,2627,12.87534071,2635
12.90160128,2584,12.90160128,2594
12.92786185,2570,12.92786185,2556
12.95412242,2559,12.95412242,2631
12.98038299,2539,12.98038299,2580
13.00664356,2484,13.00664356,2570
13.03290413,2536,13.03290413,2599
13.0591647,2507,13.0591647,2710
13.08542527,2398,13.08542527,2585
13.11168584,2537,13.11168584,2527
13.13794641,2498,13.13794641,2598
13.16420698,2547,13.16420698,2555
13.19046755,2541,13.19046755,2576
13.21672812,2474,13.21672812,2589
13.24298869,2459,13.24298869,2557
13.26924926,2485,13.26924926,2560
13.29550983,2475,13.29550983,2529
13.3217704,2519,13.3217704,2559
13.34803097,2520,13.34803097,2570
13.37429154,2391,13.37429154,2517
13.40055211,2504,13.40055211,2586
13.42681268,2375,13.42681268,2551
13.45307325,2419,13.45307325,2490
13.47933382,2382,13.47933382,2561
13.50559439,2449,13.50559439,2483
13.53185496,2497,13.53185496,2461
13.55811553,2362,13.55811553,2515
13.5843761,2445,13.5843761,2473
13.61063667,2384,13.61063667,2449
13.63689724,2446,13.63689724,2499
13.66315781,2430,13.66315781,2408
13.68941838,2373,13.68941838,2405
13.71567895,2383,13.71567895,2426
13.74193952,2395,13.74193952,2469
13.76820009,2336,13.76820009,2404
13.79446066,2308,13.79446066,2500
13.82072123,2433,13.82072123,2428
13.8469818,2469,13.8469818,2393
13.87324237,2376,13.87324237,2384
13.89950294,2285,13.89950294,2476
13.92576351,2317,13.92576351,2313
13.95202408,2343,13.95202408,2349
13.97828465,2341,13.97828465,2374
14.00454522,2389,14.00454522,2386
14.03080579,2302,14.03080579,2368
14.05706636,2330,14.05706636,2346
14.08332693,2370,14.08332693,2315
14.1095875,2287,14.1095875,2412
14.13584807,2399,14.13584807,2256
14.16210864,2358,14.16210864,2371
14.18836921,2339,14.18836921,2314
14.21462978,2292,14.21462978,2392
14.24089035,2270,14.24089035,2433
14.26715092,2294,14.26715092,2351
14.29341149,2347,14.29341149,2350
14.31967206,2293,14.31967206,2265
14.34593263,2276,14.34593263,2334
14.3721932,2251,14.3721932,2231
14.39845377,2309,14.39845377,2288
14.42471434,2242,14.42471434,2392
14.45097491,2200,14.45097491,2383
14.47723548,2238,14.47723548,2243
14.50349605,2250,14.50349605,2335
14.52975662,2228,14.52975662,2300
14.55601719,2178,14.55601719,2331
14.58227776,2260,14.58227776,2315
14.60853833,2195,14.60853833,2262
14.6347989,2207,14.6347989,2296
14.66105947,2154,14.66105947,2239
14.68732004,2140,14.68732004,2245
14.71358061,2136,14.71358061,2312
14.73984118,2201,14.73984118,2310
14.76610175,2193,14.76610175,2241
14.79236232,2168,14.79236232,2271
14.81862289,2242,14.81862289,2262
14.84488346,2237,14.84488346,2306
14.87114403,2165,14.87114403,2283
14.8974046,2170,14.8974046,2211
14.92366517,2157,14.92366517,2189
14.94992574,2118,14.94992574,2281
14.97618631,2077,14.97618631,2222
15.00244688,2116,15.00244688,2273
15.02870745,2080,15.02870745,2206
15.05496802,2056,15.05496802,2242
15.08122859,2086,15.08122859,2269
15.10748916,2215,15.10748916,2174
15.13374973,2150,15.13374973,2192
15.1600103,2061,15.1600103,2173
15.18627087,2190,15.18627087,2186
15.21253144,2209,15.21253144,2241
15.23879201,2135,15.23879201,2152
15.26505258,2054,15.26505258,2235
15.29131315,2107,15.29131315,2173
15.31757372,2087,15.31757372,2235
15.34383429,2144,15.34383429,2158
15.37009486,2116,15.37009486,2208
15.39635543,2089,15.39635543,2171
15.422616,2111,15.422616,2159
15.44887657,2013,15.44887657,2144
15.47513714,2107,15.47513714,2184
15.50139771,2062,15.50139771,2104
15.52765828,2005,15.52765828,2149
15.55391885,2085,15.55391885,2201
15.58017942,1965,15.58017942,2219
15.60643999,1984,15.60643999,2084
15.63270056,2029,15.63270056,2089
15.65896113,2002,15.65896113,2126
15.6852217,2082,15.6852217,2188
15.71148227,2103,15.71148227,2016
15.73774284,1998,15.73774284,2035
15.76400341,2043,15.76400341,2129
15.79026398,2023,15.79026398,2108
15.81652455,2019,15.81652455,2073
15.84278512,1990,15.84278512,2037
15.86904569,1977,15.86904569,2099
15.89530626,1944,15.89530626,2119
15.92156683,1952,15.92156683,2045
15.9478274,1991,15.9478274,2055
15.97408797,1945,15.97408797,2033
16.00034854,1984,16.00034854,2076
16.02660911,1985,16.02660911,1981
16.05286968,1956,16.05286968,2060
16.07913025,1952,16.07913025,2081
16.10539082,1975,16.10539082,2084
16.13165139,1985,16.13165139,2089
16.15791196,1973,16.15791196,2017
16.18417253,2040,16.18417253,2077
16.2104331,1931,16.2104331,2076
16.23669367,1946,16.23669367,2007
16.26295424,2009,16.26295424,2082
16.28921481,1941,16.28921481,1996
16.31547538,1802,16.31547538,1950
16.34173595,1893,16.34173595,2116
16.36799652,1994,16.36799652,1973
16.39425709,1862,16.39425709,2089
16.42051766,1945,16.42051766,2063
16.44677823,1904,16.44677823,2002
16.4730388,2002,16.4730388,2030
16.49929937,1888,16.49929937,2013
16.52555994,1850,16.52555994,1984
16.55182051,1911,16.55182051,1979
16.57808108,1885,16.57808108,1893
16.60434165,1938,16.60434165,1912
16.63060222,1874,16.63060222,1962
16.65686279,1943,16.65686279,1929
16.68312336,1941,16.68312336,1997
16.70938393,1888,16.70938393,2016
16.7356445,1854,16.7356445,2024
16.76190507,1869,16.76190507,2040
16.78816564,1944,16.78816564,1993
16.81442621,1904,16.81442621,1917
16.84068678,1810,16.84068678,1950
16.86694735,1883,16.86694735,1925
16.89320792,1810,16.89320792,1893
16.91946849,1946,16.91946849,1964
16.94572906,1807,16.94572906,2031
16.97198963,1926,16.97198963,1953
16.9982502,1803,16.9982502,1902
17.02451077,1843,17.02451077,1961
17.05077134,1854,17.05077134,1950
17.07703191,1876,17.07703191,1979
17.10329248,1876,17.10329248,2025
17.12955305,1767,17.12955305,2041
17.15581362,1898,17.15581362,1938
17.18207419,1808,17.18207419,1973
17.20833476,1758,17.20833476,1971
17.23459533,1854,17.23459533,1944
17.2608559,1827,17.2608559,1910
17.28711647,1805,17.28711647,1974
17.31337704,1806,17.31337704,2005
17.33963761,1869,17.33963761,1941
17.36589818,1782,17.36589818,2062
17.39215875,1793,17.39215875,1993
17.41841932,1746,17.41841932,1789
17.44467989,1810,17.44467989,1923
17.47094046,1821,17.47094046,1928
17.49720103,1783,17.49720103,1884
17.5234616,1756,17.5234616,1904
17.54972217,1923,17.54972217,1861
17.57598274,1768,17.57598274,1864
17.60224331,1721,17.60224331,1921
17.62850388,1786,17.62850388,1874
17.65476445,1772,17.65476445,1954
17.68102502,1819,17.68102502,1786
17.70728559,1772,17.70728559,1984
17.73354616,1831,17.73354616,1958
17.75980673,1790,17.75980673,1863
17.7860673,1762,17.7860673,1845
17.81232787,1769,17.81232787,1923
17.83858844,1651,17.83858844,1887
17.86484901,1729,17.86484901,1902
17.89110958,1742,17.89110958,1921
17.91737015,1778,17.91737015,1839
17.94363072,1784,17.94363072,1833
17.96989129,1758,17.96989129,1868
17.99615186,1790,17.99615186,1904
18.02241243,1770,18.02241243,1815
18.048673,1644,18.048673,1749
18.07493357,1754,18.07493357,1849
18.10119414,1710,18.10119414,1860
18.12745471,1768,18.12745471,1874
18.15371528,1735,18.15371528,1788
18.17997585,1668,18.17997585,1991
18.20623642,1684,18.20623642,1901
18.23249699,1720,18.23249699,1847
18.25875756,1685,18.25875756,1896
18.28501813,1727,18.28501813,1798
18.3112787,1719,18.3112787,1851
18.33753927,1740,18.33753927,1829
18.36379984,1616,18.36379984,1871
18.39006041,1616,18.39006041,1841
18.41632098,1677,18.41632098,1845
18.44258155,1734,18.44258155,1804
18.46884212,1704,18.46884212,1818
18.49510269,1635,18.49510269,1798
18.52136326,1647,18.52136326,1785
18.54762383,1725,18.54762383,1807
18.5738844,1673,18.5738844,1773
18.60014497,1683,18.60014497,1795
18.62640554,1653,18.62640554,1799
18.65266611,1699,18.65266611,1868
18.67892668,1657,18.67892668,1766
18.70518725,1623,18.70518725,1848
18.73144782,1688,18.73144782,1840
18.75770839,1678,18.75770839,1814
18.78396896,1686,18.78396896,1829
18.81022953,1619,18.81022953,1797
18.8364901,1629,18.8364901,1828
18.86275067,1630,18.86275067,1797
18.88901124,1656,18.88901124,1807
18.91527181,1657,18.91527181,1849
18.94153238,1615,18.94153238,1831
18.96779295,1639,18.96779295,1752
18.99405352,1656,18.99405352,1752
19.02031409,1608,19.02031409,1822
19.04657466,1651,19.04657466,1771
19.07283523,1564,19.07283523,1773
19.0990958,1556,19.0990958,1802
19.12535637,1615,19.12535637,1773
19.15161694,1638,19.15161694,1746
19.17787751,1614,19.17787751,1650
19.20413808,1639,19.20413808,1741
19.23039865,1627,19.23039865,1673
19.25665922,1536,19.25665922,1797
19.28291979,1547,19.28291979,1748
19.30918036,1568,19.30918036,1743
19.33544093,1553,19.33544093,1756
19.3617015,1613,19.3617015,1730
19.38796207,1575,19.38796207,1712
19.41422264,1557,19.41422264,1788
19.44048321,1596,19.44048321,1667
19.46674378,1574,19.46674378,1694
19.49300435,1623,19.49300435,1705
19.51926492,1494,19.51926492,1674
19.54552549,1616,19.54552549,1725
19.57178606,1600,19.57178606,1708
19.59804663,1540,19.59804663,1757
19.6243072,1551,19.6243072,1731
19.65056777,1524,19.65056777,1731
19.67682834,1543,19.67682834,1824
19.70308891,1500,19.70308891,1681
19.72934948,1561,19.72934948,1690
19.75561005,1499,19.75561005,1723
19.78187062,1495,19.78187062,1694
19.80813119,1458,19.80813119,1718
19.83439176,1474,19.83439176,1766
19.86065233,1592,19.86065233,1760
19.8869129,1576,19.8869129,1677
19.91317347,1513,19.91317347,1723
19.93943404,1459,19.93943404,1751
19.96569461,1489,19.96569461,1745
19.99195518,1522,19.99195518,1737
20.01821575,1578,20.01821575,1785
20.04447632,1533,20.04447632,1804
20.07073689,1580,20.07073689,1808
20.09699746,1488,20.09699746,1814
20.12325803,1507,20.12325803,1784
20.1495186,1468,20.1495186,1780
20.17577917,1448,20.17577917,1714
20.20203974,1457,20.20203974,1710
20.22830031,1519,20.22830031,1722
20.25456088,1571,20.25456088,1748
20.28082145,1454,20.28082145,1796
20.30708202,1517,20.30708202,1725
20.33334259,1512,20.33334259,1768
20.35960316,1504,20.35960316,1744
20.38586373,1463,20.38586373,1726
20.4121243,1467,20.4121243,1749
20.43838487,1472,20.43838487,1644
20.46464544,1506,20.46464544,1661
20.49090601,1520,20.49090601,1754
20.51716658,1504,20.51716658,1791
20.54342715,1433,20.54342715,1752
20.56968772,1537,20.56968772,1807
20.59594829,1439,20.59594829,1868
20.62220886,1439,20.62220886,1755
20.64846943,1468,20.64846943,1909
20.67473,1408,20.67473,2022
20.70099057,1420,20.70099057,1863
20.72725114,1477,20.72725114,1794
20.75351171,1522,20.75351171,1746
20.77977228,1416,20.77977228,1781
20.80603285,1454,20.80603285,1763
20.83229342,1378,20.83229342,1784
20.85855399,1473,20.85855399,1704
20.88481456,1475,20.88481456,1741
20.91107513,1438,20.91107513,1700
20.9373357,1425,20.9373357,1708
20.96359627,1437,20.96359627,1628
20.98985684,1438,20.98985684,1714
21.01611741,1451,21.01611741,1761
21.04237798,1338,21.04237798,1654
21.06863855,1424,21.06863855,1731
21.09489912,1541,21.09489912,1712
21.12115969,1418,21.12115969,1780
21.14742026,1440,21.14742026,1728
21.17368083,1447,21.17368083,1654
21.1999414,1428,21.1999414,1698
21.22620197,1408,21.22620197,1689
21.25246254,1419,21.25246254,1776
21.27872311,1401,21.27872311,1700
21.30498368,1416,21.30498368,1709
21.33124425,1374,21.33124425,1720
21.35750482,1396,21.35750482,1711
21.38376539,1363,21.38376539,1732
21.41002596,1336,21.41002596,1728
21.43628653,1475,21.43628653,1715
21.4625471,1332,21.4625471,1685
21.48880767,1462,21.48880767,1672
21.51506824,1355,21.51506824,1651
21.54132881,1359,21.54132881,1651
21.56758938,1381,21.56758938,1704
21.59384995,1310,21.59384995,1790
21.62011052,1419,21.62011052,1700
21.64637109,1374,21.64637109,1718
21.67263166,1368,21.67263166,1701
21.69889223,1390,21.69889223,1653
21.7251528,1387,21.7251528,1674
21.75141337,1327,21.75141337,1726
21.77767394,1303,21.77767394,1717
21.80393451,1331,21.80393451,1749
21.83019508,1319,21.83019508,1786
21.85645565,1395,21.85645565,1726
21.88271622,1411,21.88271622,1635
21.90897679,1390,21.90897679,1714
21.93523736,1324,21.93523736,1781
21.96149793,1372,21.96149793,1665
21.9877585,1387,21.9877585,1730
22.01401907,1361,22.01401907,1765
22.04027964,1308,22.04027964,1790
22.06654021,1381,22.06654021,1799
22.09280078,1336,22.09280078,1661
22.11906135,1345,22.11906135,1789
22.14532192,1310,22.14532192,1830
22.17158249,1311,22.17158249,1750
22.19784306,1368,22.19784306,1836
22.22410363,1373,22.22410363,1875
22.2503642,1269,22.2503642,1921
22.27662477,1304,22.27662477,2116
22.30288534,1353,22.30288534,2228
22.32914591,1330,22.32914591,2436
22.35540648,1310,22.35540648,2875
22.38166705,1314,22.38166705,3641
22.40792762,1228,22.40792762,4519
22.43418819,1385,22.43418819,7726
22.46044876,1322,22.46044876,14424
22.48670933,1280,22.48670933,15513
22.5129699,1329,22.5129699,17810
22.53923047,1338,22.53923047,25429
22.56549104,1272,22.56549104,37834
22.59175161,1265,22.59175161,19727
22.61801218,1298,22.61801218,7129
22.64427275,1291,22.64427275,4555
22.67053332,1297,22.67053332,3700
22.69679389,1282,22.69679389,3365
22.72305446,1277,22.72305446,3128
22.74931503,1280,22.74931503,2964
22.7755756,1275,22.7755756,2746
22.80183617,1267,22.80183617,2894
22.82809674,1263,22.82809674,2822
22.85435731,1270,22.85435731,2888
22.88061788,1319,22.88061788,2951
22.90687845,1343,22.90687845,2974
22.93313902,1324,22.93313902,2873
22.95939959,1202,22.95939959,2961
22.98566016,1279,22.98566016,3129
23.01192073,1266,23.01192073,3045
23.0381813,1297,23.0381813,3053
23.06444187,1267,23.06444187,3175
23.09070244,1236,23.09070244,3094
23.11696301,1240,23.11696301,3160
23.14322358,1256,23.14322358,3180
23.16948415,1297,23.16948415,3259
23.19574472,1251,23.19574472,3197
23.22200529,1286,23.22200529,3295
23.24826586,1267,23.24826586,3287
23.27452643,1254,23.27452643,3399
23.300787,1274,23.300787,3353
23.32704757,1204,23.32704757,3403
23.35330814,1245,23.35330814,3439
23.37956871,1241,23.37956871,3445
23.40582928,1268,23.40582928,3480
23.43208985,1252,23.43208985,3602
23.45835042,1219,23.45835042,3555
23.48461099,1219,23.48461099,3664
23.51087156,1243,23.51087156,3967
23.53713213,1253,23.53713213,3980
23.5633927,1259,23.5633927,4035
23.58965327,1237,23.58965327,4088
23.61591384,1204,23.61591384,4246
23.64217441,1220,23.64217441,4157
23.66843498,1247,23.66843498,4349
23.69469555,1170,23.69469555,4662
23.72095612,1221,23.72095612,4788
23.74721669,1178,23.74721669,5187
23.77347726,1223,23.77347726,5358
23.79973783,1142,23.79973783,5416
23.8259984,1177,23.8259984,5751
23.85225897,1204,23.85225897,6055
23.87851954,1167,23.87851954,7013
23.90478011,1256,23.90478011,8835
23.93104068,1169,23.93104068,11459
23.95730125,1193,23.95730125,11447
23.98356182,1242,23.98356182,9106
24.00982239,1213,24.00982239,8885
24.03608296,1185,24.03608296,10020
24.06234353,1185,24.06234353,11412
24.0886041,1157,24.0886041,15723
24.11486467,1168,24.11486467,24208
24.14112524,1175,24.14112524,34029
24.16738581,1205,24.16738581,39789
24.19364638,1143,24.19364638,43367
24.21990695,1130,24.21990695,47014
24.24616752,1194,24.24616752,52061
24.27242809,1199,24.27242809,57368
24.29868866,1163,24.29868866,63057
24.32494923,1203,24.32494923,70125
24.3512098,1158,24.3512098,76121
24.37747037,1213,24.37747037,83493
24.40373094,1111,24.40373094,91233
24.42999151,1160,24.42999151,99712
24.45625208,1144,24.45625208,108443
24.48251265,1182,24.48251265,118482
24.50877322,1209,24.50877322,130250
24.53503379,1134,24.53503379,142057
24.56129436,1192,24.56129436,154835
24.58755493,1139,24.58755493,170036
24.6138155,1172,24.6138155,186883
24.64007607,1158,24.64007607,207313
24.66633664,1161,24.66633664,230306
24.69259721,1106,24.69259721,261146
24.71885778,1170,24.71885778,302523
24.74511835,1105,24.74511835,361166
24.77137892,1174,24.77137892,449833
24.79763949,1168,24.79763949,586573
24.82390006,1180,24.82390006,824005
24.85016063,1175,24.85016063,1288174
24.8764212,1135,24.8764212,2205512
24.90268177,1177,24.90268177,3727774
24.92894234,1121,24.92894234,6854123
24.95520291,1128,24.95520291,16345938
24.98146348,1105,24.98146348,44925400
25.00772405,1147,25.00772405,80677080
25.03398462,1160,25.03398462,42026808
25.06024519,1165,25.06024519,38796828
25.08650576,1168,25.08650576,27900208
25.11276633,1124,25.11276633,6781038
25.1390269,1139,25.1390269,2415632
25.16528747,1157,25.16528747,1254899
25.19154804,1122,25.19154804,782460
25.21780861,1110,25.21780861,545304
25.24406918,1121,25.24406918,407945
25.27032975,1130,25.27032975,320631
25.29659032,1107,25.29659032,261159
25.32285089,1119,25.32285089,217653
25.34911146,1131,25.34911146,184488
25.37537203,1080,25.37537203,156527
25.4016326,1060,25.4016326,134531
25.42789317,1116,25.42789317,115669
25.45415374,1047,25.45415374,100175
25.48041431,1081,25.48041431,87892
25.50667488,1138,25.50667488,76547
25.53293545,1083,25.53293545,68098
25.55919602,1074,25.55919602,59790
25.58545659,1161,25.58545659,53806
25.61171716,1147,25.61171716,47865
25.63797773,1173,25.63797773,42428
25.6642383,1072,25.6642383,37816
25.69049887,1128,25.69049887,34394
25.71675944,1108,25.71675944,31099
25.74302001,1106,25.74302001,28376
25.76928058,1119,25.76928058,25797
25.79554115,1148,25.79554115,23812
25.82180172,1118,25.82180172,21639
25.84806229,1049,25.84806229,19753
25.87432286,1054,25.87432286,18604
25.90058343,1055,25.90058343,17660
25.926844,983,25.926844,16531
25.95310457,1122,25.95310457,15426
25.97936514,1063,25.97936514,14884
26.00562571,1059,26.00562571,13895
26.03188628,1109,26.03188628,13240
26.05814685,1096,26.05814685,12485
26.08440742,1067,26.08440742,12094
26.11066799,1074,26.11066799,11698
26.13692856,1094,26.13692856,11178
26.16318913,1059,26.16318913,10687
26.1894497,1097,26.1894497,10270
26.21571027,1107,26.21571027,9817
26.24197084,1103,26.24197084,9351
26.26823141,1080,26.26823141,8879
26.29449198,1091,26.29449198,8729
26.32075255,1075,26.32075255,8373
26.34701312,1091,26.34701312,7863
26.37327369,1035,26.37327369,7595
26.39953426,1061,26.39953426,7230
26.42579483,1064,26.42579483,6992
26.4520554,1040,26.4520554,6585
26.47831597,1037,26.47831597,6334
26.50457654,1075,26.50457654,6108
26.53083711,1080,26.53083711,5898
26.55709768,1050,26.55709768,5657
26.58335825,1025,26.58335825,5567
26.60961882,1011,26.60961882,5339
26.63587939,1049,26.63587939,4982
26.66213996,1047,26.66213996,4866
26.68840053,1049,26.68840053,4743
26.7146611,1070,26.7146611,4645
26.74092167,1074,26.74092167,4595
26.76718224,1053,26.76718224,4540
26.79344281,1073,26.79344281,4572
26.81970338,1002,26.81970338,4433
26.84596395,1063,26.84596395,4268
26.87222452,1017,26.87222452,4242
26.89848509,1044,26.89848509,4116
26.92474566,1069,26.92474566,4058
26.95100623,1043,26.95100623,4040
26.9772668,1057,26.9772668,3823
27.00352737,1016,27.00352737,3830
27.02978794,1030,27.02978794,3629
27.05604851,979,27.05604851,3727
27.08230908,984,27.08230908,3656
27.10856965,1040,27.10856965,3502
27.13483022,1036,27.13483022,3410
27.16109079,1029,27.16109079,3437
27.18735136,1050,27.18735136,3404
27.21361193,1027,27.21361193,3383
27.2398725,1056,27.2398725,3177
27.26613307,1005,27.26613307,3183
27.29239364,1018,27.29239364,3257
27.31865421,1023,27.31865421,3173
27.34491478,972,27.34491478,3215
27.37117535,1046,27.37117535,3017
27.39743592,998,27.39743592,3040
27.42369649,964,27.42369649,3110
27.44995706,1091,27.44995706,2937
27.47621763,1015,27.47621763,2830
27.5024782,989,27.5024782,2922
27.52873877,1026,27.52873877,2681
27.55499934,994,27.55499934,2828
27.58125991,1002,27.58125991,2716
27.60752048,959,27.60752048,2612
27.63378105,1052,27.63378105,2639
27.66004162,991,27.66004162,2666
27.68630219,966,27.68630219,2546
27.71256276,1069,27.71256276,2516
27.73882333,1010,27.73882333,2441
27.7650839,988,27.7650839,2509
27.79134447,1009,27.79134447,2339
27.81760504,971,27.81760504,2419
27.84386561,992,27.84386561,2332
27.87012618,1051,27.87012618,2288
27.89638675,1013,27.89638675,2199
27.92264732,993,27.92264732,2149
27.94890789,1031,27.94890789,2173
27.97516846,1009,27.97516846,2163
28.00142903,986,28.00142903,2162
28.0276896,1021,28.0276896,2153
28.05395017,1043,28.05395017,2118
28.08021074,985,28.08021074,2080
28.10647131,1009,28.10647131,1992
28.13273188,963,28.13273188,2123
28.15899245,1031,28.15899245,2067
28.18525302,1084,28.18525302,2084
28.21151359,1064,28.21151359,2079
28.23777416,1087,28.23777416,2059
28.26403473,1150,28.26403473,2037
28.2902953,1175,28.2902953,2009
28.31655587,1170,28.31655587,2025
28.34281644,1516,28.34281644,2036
28.36907701,3228,28.36907701,2173
28.39533758,5981,28.39533758,2116
28.42159815,2355,28.42159815,1972
28.44785872,2646,28.44785872,2004
28.47411929,2921,28.47411929,2039
28.50037986,1500,28.50037986,2098
28.52664043,1197,28.52664043,2107
28.552901,1137,28.552901,2153
28.57916157,1056,28.57916157,2037
28.60542214,1028,28.60542214,2066
28.63168271,1018,28.63168271,2038
28.65794328,1007,28.65794328,2004
28.68420385,1001,28.68420385,2082
28.71046442,947,28.71046442,2088
28.73672499,1036,28.73672499,2089
28.76298556,989,28.76298556,2086
28.78924613,1007,28.78924613,2032
28.8155067,968,28.8155067,1956
28.84176727,936,28.84176727,2093
28.86802784,938,28.86802784,1991
28.89428841,943,28.89428841,1996
28.92054898,954,28.92054898,2064
28.94680955,921,28.94680955,2084
28.97307012,992,28.97307012,1986
28.99933069,949,28.99933069,2085
29.02559126,980,29.02559126,2077
29.05185183,913,29.05185183,2156
29.0781124,922,29.0781124,2146
29.10437297,899,29.10437297,2228
29.13063354,905,29.13063354,2159
29.15689411,932,29.15689411,2212
29.18315468,969,29.18315468,2283
29.20941525,985,29.20941525,2352
29.23567582,961,29.23567582,2309
29.26193639,954,29.26193639,2352
29.28819696,986,29.28819696,2395
29.31445753,905,29.31445753,2456
29.3407181,905,29.3407181,2507
29.36697867,910,29.36697867,2584
29.39323924,943,29.39323924,2649
29.41949981,944,29.41949981,2767
29.44576038,909,29.44576038,2838
29.47202095,884,29.47202095,2893
29.49828152,962,29.49828152,2893
29.52454209,927,29.52454209,2935
29.55080266,924,29.55080266,2901
29.57706323,957,29.57706323,3067
29.6033238,871,29.6033238,3075
29.62958437,939,29.62958437,3024
29.65584494,953,29.65584494,2912
29.68210551,894,29.68210551,3041
29.70836608,932,29.70836608,2940
29.73462665,967,29.73462665,2789
29.76088722,882,29.76088722,2811
29.78714779,884,29.78714779,2669
29.81340836,899,29.81340836,2573
29.83966893,881,29.83966893,2534
29.8659295,867,29.8659295,2372
29.89219007,940,29.89219007,2264
29.91845064,906,29.91845064,2218
29.94471121,885,29.94471121,2111
29.97097178,879,29.97097178,2106
29.99723235,913,29.99723235,1981
30.02349292,929,30.02349292,1995
30.04975349,891,30.04975349,1896
30.07601406,873,30.07601406,1856
30.10227463,904,30.10227463,1842
30.1285352,855,30.1285352,1839
30.15479577,932,30.15479577,1799
30.18105634,888,30.18105634,1752
30.20731691,964,30.20731691,1691
30.23357748,860,30.23357748,1592
30.25983805,876,30.25983805,1587
30.28609862,884,30.28609862,1599
30.31235919,870,30.31235919,1572
30.33861976,881,30.33861976,1590
30.36488033,898,30.36488033,1530
30.3911409,889,30.3911409,1563
30.41740147,827,30.41740147,1541
30.44366204,915,30.44366204,1430
30.46992261,951,30.46992261,1470
30.49618318,902,30.49618318,1491
30.52244375,887,30.52244375,1418
30.54870432,865,30.54870432,1390
30.57496489,882,30.57496489,1423
30.60122546,897,30.60122546,1400
30.62748603,882,30.62748603,1395
30.6537466,832,30.6537466,1368
30.68000717,875,30.68000717,1359
30.70626774,819,30.70626774,1370
30.73252831,911,30.73252831,1365
30.75878888,914,30.75878888,1316
30.78504945,854,30.78504945,1319
30.81131002,895,30.81131002,1292
30.83757059,883,30.83757059,1296
30.86383116,866,30.86383116,1282
30.89009173,868,30.89009173,1334
30.9163523,852,30.9163523,1299
30.94261287,905,30.94261287,1244
30.96887344,893,30.96887344,1274
30.99513401,881,30.99513401,1257
31.02139458,856,31.02139458,1292
31.04765515,836,31.04765515,1267
31.07391572,869,31.07391572,1287
31.10017629,843,31.10017629,1284
31.12643686,875,31.12643686,1219
31.15269743,880,31.15269743,1243
31.178958,876,31.178958,1217
31.20521857,830,31.20521857,1233
31.23147914,864,31.23147914,1245
31.25773971,832,31.25773971,1332
31.28400028,834,31.28400028,1281
31.31026085,834,31.31026085,1207
31.33652142,845,31.33652142,1247
31.36278199,807,31.36278199,1205
31.38904256,863,31.38904256,1208
31.41530313,874,31.41530313,1200
31.4415637,895,31.4415637,1218
31.46782427,849,31.46782427,1148
31.49408484,862,31.49408484,1212
31.52034541,859,31.52034541,1173
31.54660598,856,31.54660598,1218
31.57286655,831,31.57286655,1184
31.59912712,873,31.59912712,1111
31.62538769,849,31.62538769,1164
31.65164826,836,31.65164826,1130
31.67790883,846,31.67790883,1165
31.7041694,854,31.7041694,1155
31.73042997,835,31.73042997,1140
31.75669054,867,31.75669054,1159
31.78295111,856,31.78295111,1161
31.80921168,788,31.80921168,1159
31.83547225,872,31.83547225,1185
31.86173282,848,31.86173282,1172
31.88799339,879,31.88799339,1153
31.91425396,821,31.91425396,1134
31.94051453,813,31.94051453,1128
31.9667751,822,31.9667751,1140
31.99303567,793,31.99303567,1168
32.01929624,866,32.01929624,1127
32.04555681,781,32.04555681,1111
32.07181738,861,32.07181738,1098
32.09807795,802,32.09807795,1114
32.12433852,812,32.12433852,1153
32.15059909,838,32.15059909,1120
32.17685966,789,32.17685966,1169
32.20312023,823,32.20312023,1173
32.2293808,813,32.2293808,1138
32.25564137,857,32.25564137,1087
32.28190194,849,32.28190194,1015
32.30816251,791,32.30816251,1109
32.33442308,857,32.33442308,1051
32.36068365,786,32.36068365,1123
32.38694422,852,32.38694422,1059
32.41320479,798,32.41320479,1073
32.43946536,841,32.43946536,1079
32.46572593,791,32.46572593,1101
32.4919865,803,32.4919865,1102
32.51824707,806,32.51824707,1109
32.54450764,790,32.54450764,1066
32.57076821,802,32.57076821,1102
32.59702878,860,32.59702878,1111
32.62328935,788,32.62328935,1046
32.64954992,795,32.64954992,1101
32.67581049,839,32.67581049,1016
32.70207106,828,32.70207106,1112
32.72833163,840,32.72833163,1071
32.7545922,811,32.7545922,1079
32.78085277,769,32.78085277,1127
32.80711334,779,32.80711334,1037
32.83337391,830,32.83337391,1086
32.85963448,774,32.85963448,1124
32.88589505,836,32.88589505,1078
32.91215562,780,32.91215562,1066
32.93841619,810,32.93841619,1096
32.96467676,759,32.96467676,1091
32.99093733,825,32.99093733,1083
33.0171979,822,33.0171979,1034
33.04345847,799,33.04345847,1049
33.06971904,800,33.06971904,1020
33.09597961,843,33.09597961,1071
33.12224018,843,33.12224018,1039
33.14850075,825,33.14850075,1061
33.17476132,774,33.17476132,1064
33.20102189,798,33.20102189,965
33.22728246,758,33.22728246,1106
33.25354303,825,33.25354303,1047
33.2798036,813,33.2798036,1022
33.30606417,780,33.30606417,975
33.33232474,762,33.33232474,1037
33.35858531,802,33.35858531,1050
33.38484588,833,33.38484588,1015
33.41110645,815,33.41110645,980
33.43736702,754,33.43736702,1017
33.46362759,833,33.46362759,1111
33.48988816,813,33.48988816,1058
33.51614873,756,33.51614873,1016
33.5424093,839,33.5424093,1059
33.56866987,780,33.56866987,1051
33.59493044,814,33.59493044,1061
33.62119101,791,33.62119101,1019
33.64745158,757,33.64745158,1055
33.67371215,770,33.67371215,986
33.69997272,743,33.69997272,1010
33.72623329,757,33.72623329,1047
33.75249386,766,33.75249386,1064
33.77875443,759,33.77875443,1015
33.805015,794,33.805015,1032
33.83127557,758,33.83127557,982
33.85753614,756,33.85753614,933
33.88379671,803,33.88379671,977
33.91005728,781,33.91005728,1020
33.93631785,806,33.93631785,1016
33.96257842,773,33.96257842,1016
33.98883899,746,33.98883899,990
34.01509956,805,34.01509956,1004
34.04136013,732,34.04136013,981
34.0676207,791,34.0676207,1015
34.09388127,804,34.09388127,999
34.12014184,776,34.12014184,997
34.14640241,759,34.14640241,998
34.17266298,791,34.17266298,961
34.19892355,794,34.19892355,996
34.22518412,757,34.22518412,943
34.25144469,793,34.25144469,1057
34.27770526,758,34.27770526,992
34.30396583,733,34.30396583,1018
34.3302264,795,34.3302264,1037
34.35648697,792,34.35648697,1023
34.38274754,797,34.38274754,991
34.40900811,724,34.40900811,1100
34.43526868,775,34.43526868,1007
34.46152925,724,34.46152925,1010
34.48778982,772,34.48778982,927
34.51405039,795,34.51405039,951
34.54031096,743,34.54031096,983
34.56657153,766,34.56657153,956
34.5928321,793,34.5928321,990
34.61909267,714,34.61909267,1016
34.64535324,772,34.64535324,923
34.67161381,743,34.67161381,931
34.69787438,749,34.69787438,943
34.72413495,763,34.72413495,974
34.75039552,773,34.75039552,967
34.77665609,830,34.77665609,1018
34.80291666,784,34.80291666,956
34.82917723,768,34.82917723,950
34.8554378,774,34.8554378,913
34.88169837,770,34.88169837,975
34.90795894,714,34.90795894,946
34.93421951,781,34.93421951,985
34.96048008,768,34.96048008,940
34.98674065,781,34.98674065,946
35.01300122,749,35.01300122,913
35.03926179,728,35.03926179,894
35.06552236,792,35.06552236,911
35.09178293,722,35.09178293,976
35.1180435,752,35.1180435,1008
35.14430407,765,35.14430407,990
35.17056464,768,35.17056464,955
35.19682521,777,35.19682521,917
35.22308578,705,35.22308578,1035
35.24934635,766,35.24934635,983
35.27560692,720,35.27560692,990
35.30186749,734,35.30186749,997
35.32812806,742,35.32812806,978
35.35438863,763,35.35438863,979
35.3806492,740,35.3806492,1033
35.40690977,736,35.40690977,979
35.43317034,766,35.43317034,943
35.45943091,738,35.45943091,966
35.48569148,748,35.48569148,964
35.51195205,718,35.51195205,1041
35.53821262,752,35.53821262,1005
35.56447319,720,35.56447319,970
35.59073376,749,35.59073376,1029
35.61699433,662,35.61699433,1037
35.6432549,708,35.6432549,1041
35.66951547,738,35.66951547,988
35.69577604,747,35.69577604,1037
35.72203661,746,35.72203661,1016
35.74829718,797,35.74829718,984
35.77455775,759,35.77455775,949
35.80081832,732,35.80081832,933
35.82707889,769,35.82707889,962
35.85333946,770,35.85333946,978
35.87960003,731,35.87960003,928
35.9058606,767,35.9058606,944
35.93212117,704,35.93212117,930
35.95838174,766,35.95838174,915
35.98464231,714,35.98464231,918
36.01090288,720,36.01090288,835
36.03716345,704,36.03716345,945
36.06342402,797,36.06342402,942
36.08968459,768,36.08968459,903
36.11594516,717,36.11594516,938
36.14220573,708,36.14220573,937
36.1684663,765,36.1684663,964
36.19472687,728,36.19472687,967
36.22098744,720,36.22098744,887
36.24724801,751,36.24724801,936
36.27350858,703,36.27350858,908
36.29976915,705,36.29976915,869
36.32602972,698,36.32602972,896
36.35229029,753,36.35229029,861
36.37855086,703,36.37855086,890
36.40481143,727,36.40481143,925
36.431072,729,36.431072,874
36.45733257,683,36.45733257,930
36.48359314,732,36.48359314,899
36.50985371,730,36.50985371,902
36.53611428,747,36.53611428,915
36.56237485,748,36.56237485,884
36.58863542,765,36.58863542,888
36.61489599,718,36.61489599,924
36.64115656,748,36.64115656,885
36.66741713,752,36.66741713,883
36.6936777,739,36.6936777,898
36.71993827,670,36.71993827,896
36.74619884,675,36.74619884,893
36.77245941,713,36.77245941,850
36.79871998,727,36.79871998,885
36.82498055,693,36.82498055,865
36.85124112,756,36.85124112,875
36.87750169,734,36.87750169,862
36.90376226,701,36.90376226,872
36.93002283,710,36.93002283,879
36.9562834,692,36.9562834,876
36.98254397,674,36.98254397,933
37.00880454,761,37.00880454,854
37.03506511,728,37.03506511,867
37.06132568,717,37.06132568,866
37.08758625,723,37.08758625,895
37.11384682,738,37.11384682,897
37.14010739,693,37.14010739,906
37.16636796,705,37.16636796,848
37.19262853,724,37.19262853,817
37.2188891,720,37.2188891,873
37.24514967,744,37.24514967,914
37.27141024,698,37.27141024,879
37.29767081,677,37.29767081,940
37.32393138,747,37.32393138,918
37.35019195,739,37.35019195,881
37.37645252,704,37.37645252,933
37.40271309,732,37.40271309,878
37.42897366,693,37.42897366,900
37.45523423,719,37.45523423,865
37.4814948,720,37.4814948,937
37.50775537,708,37.50775537,918
37.53401594,712,37.53401594,892
37.56027651,702,37.56027651,891
37.58653708,727,37.58653708,839
37.61279765,733,37.61279765,868
37.63905822,725,37.63905822,894
37.66531879,726,37.66531879,884
37.69157936,723,37.69157936,915
37.71783993,718,37.71783993,903
37.7441005,709,37.7441005,909
37.77036107,704,37.77036107,894
37.79662164,716,37.79662164,877
37.82288221,723,37.82288221,855
37.84914278,709,37.84914278,890
37.87540335,708,37.87540335,876
37.90166392,694,37.90166392,896
37.92792449,700,37.92792449,871
37.95418506,699,37.95418506,830
37.98044563,703,37.98044563,926
38.0067062,675,38.0067062,938
38.03296677,723,38.03296677,881
38.05922734,645,38.05922734,863
38.08548791,692,38.08548791,884
38.11174848,651,38.11174848,904
38.13800905,733,38.13800905,920
38.16426962,687,38.16426962,859
38.19053019,710,38.19053019,915
38.21679076,714,38.21679076,856
38.24305133,708,38.24305133,890
38.2693119,736,38.2693119,929
38.29557247,672,38.29557247,875
38.32183304,658,38.32183304,858
38.34809361,734,38.34809361,850
38.37435418,721,38.37435418,886
38.40061475,676,38.40061475,924
38.42687532,691,38.42687532,908
38.45313589,698,38.45313589,856
38.47939646,682,38.47939646,844
38.50565703,694,38.50565703,867
38.5319176,696,38.5319176,876
38.55817817,684,38.55817817,808
38.58443874,717,38.58443874,853
38.61069931,660,38.61069931,879
38.63695988,673,38.63695988,832
38.66322045,663,38.66322045,853
38.68948102,679,38.68948102,840
38.71574159,671,38.71574159,830
38.74200216,677,38.74200216,841
38.76826273,694,38.76826273,873
38.7945233,644,38.7945233,851
38.82078387,690,38.82078387,848
38.84704444,623,38.84704444,846
38.87330501,654,38.87330501,798
38.89956558,719,38.89956558,840
38.92582615,704,38.92582615,851
38.95208672,670,38.95208672,872
38.97834729,695,38.97834729,858
39.00460786,704,39.00460786,822
39.03086843,703,39.03086843,806
39.057129,650,39.057129,854
39.08338957,668,39.08338957,877
39.10965014,754,39.10965014,842
39.13591071,640,39.13591071,807
39.16217128,689,39.16217128,845
39.18843185,692,39.18843185,860
39.21469242,702,39.21469242,813
39.24095299,689,39.24095299,864
39.26721356,720,39.26721356,887
39.29347413,662,39.29347413,868
39.3197347,645,39.3197347,914
39.34599527,666,39.34599527,879
39.37225584,692,39.37225584,856
39.39851641,673,39.39851641,813
39.42477698,662,39.42477698,875
39.45103755,693,39.45103755,866
39.47729812,666,39.47729812,872
39.50355869,674,39.50355869,823
39.52981926,692,39.52981926,844
39.55607983,694,39.55607983,811
39.5823404,686,39.5823404,835
39.60860097,648,39.60860097,873
39.63486154,674,39.63486154,854
39.66112211,670,39.66112211,845
39.68738268,657,39.68738268,825
39.71364325,677,39.71364325,867
39.73990382,630,39.73990382,824
39.76616439,652,39.76616439,837
39.79242496,682,39.79242496,854
39.81868553,681,39.81868553,825
39.8449461,697,39.8449461,826
39.87120667,693,39.87120667,854
39.89746724,681,39.89746724,839
39.92372781,675,39.92372781,839
39.94998838,648,39.94998838,851
39.97624895,652,39.97624895,817
40.00250952,661,40.00250952,919
40.02877009,692,40.02877009,844
40.05503066,702,40.05503066,858
40.08129123,657,40.08129123,909
40.1075518,667,40.1075518,849
40.13381237,666,40.13381237,837
40.16007294,649,40.16007294,747
40.18633351,648,40.18633351,857
40.21259408,698,40.21259408,833
40.23885465,670,40.23885465,901
40.26511522,714,40.26511522,843
40.29137579,688,40.29137579,794
40.31763636,675,40.31763636,892
40.34389693,642,40.34389693,885
40.3701575,691,40.3701575,843
40.39641807,647,40.39641807,846
40.42267864,700,40.42267864,842
40.44893921,697,40.44893921,841
40.47519978,672,40.47519978,869
40.50146035,656,40.50146035,843
40.52772092,645,40.52772092,902
40.55398149,654,40.55398149,846
40.58024206,658,40.58024206,879
40.60650263,595,40.60650263,897
40.6327632,659,40.6327632,889
40.65902377,628,40.65902377,889
40.68528434,649,40.68528434,881
40.71154491,651,40.71154491,884
40.73780548,708,40.73780548,853
40.76406605,648,40.76406605,868
40.79032662,680,40.79032662,903
40.81658719,680,40.81658719,915
40.84284776,661,40.84284776,955
40.86910833,649,40.86910833,878
40.8953689,661,40.8953689,881
40.92162947,656,40.92162947,837
40.94789004,681,40.94789004,831
40.97415061,682,40.97415061,875
41.00041118,713,41.00041118,902
41.02667175,658,41.02667175,831
41.05293232,664,41.05293232,898
41.07919289,637,41.07919289,893
41.10545346,653,41.10545346,933
41.13171403,667,41.13171403,911
41.1579746,653,41.1579746,827
41.18423517,641,41.18423517,877
41.21049574,672,41.21049574,919
41.23675631,655,41.23675631,798
41.26301688,632,41.26301688,820
41.28927745,674,41.28927745,863
41.31553802,659,41.31553802,856
41.34179859,671,41.34179859,867
41.36805916,658,41.36805916,843
41.39431973,618,41.39431973,841
41.4205803,702,41.4205803,849
41.44684087,619,41.44684087,826
41.47310144,654,41.47310144,853
41.49936201,630,41.49936201,858
41.52562258,642,41.52562258,806
41.55188315,627,41.55188315,837
41.57814372,648,41.57814372,782
41.60440429,661,41.60440429,757
41.63066486,699,41.63066486,866
41.65692543,643,41.65692543,852
41.683186,675,41.683186,820
41.70944657,659,41.70944657,822
41.73570714,637,41.73570714,836
41.76196771,677,41.76196771,822
41.78822828,685,41.78822828,811
41.81448885,709,41.81448885,881
41.84074942,627,41.84074942,810
41.86700999,673,41.86700999,819
41.89327056,673,41.89327056,856
41.91953113,625,41.91953113,792
41.9457917,695,41.9457917,783
41.97205227,686,41.97205227,866
41.99831284,696,41.99831284,822
42.02457341,629,42.02457341,815
42.05083398,657,42.05083398,845
42.07709455,601,42.07709455,824
42.10335512,647,42.10335512,859
42.12961569,610,42.12961569,865
42.15587626,628,42.15587626,875
42.18213683,707,42.18213683,889
42.2083974,607,42.2083974,852
42.23465797,665,42.23465797,848
42.26091854,638,42.26091854,868
42.28717911,632,42.28717911,821
42.31343968,655,42.31343968,848
42.33970025,665,42.33970025,808
42.36596082,591,42.36596082,835
42.39222139,667,42.39222139,756
42.41848196,605,42.41848196,836
42.44474253,626,42.44474253,807
42.4710031,619,42.4710031,791
42.49726367,711,42.49726367,830
42.52352424,615,42.52352424,775
42.54978481,642,42.54978481,856
42.57604538,648,42.57604538,857
42.60230595,644,42.60230595,845
42.62856652,624,42.62856652,789
42.65482709,675,42.65482709,817
42.68108766,637,42.68108766,764
42.70734823,620,42.70734823,842
42.7336088,637,42.7336088,814
42.75986937,637,42.75986937,838
42.78612994,654,42.78612994,891
42.81239051,661,42.81239051,769
42.83865108,690,42.83865108,770
42.86491165,660,42.86491165,805
42.89117222,684,42.89117222,820
42.91743279,672,42.91743279,849
42.94369336,584,42.94369336,774
42.96995393,619,42.96995393,814
42.9962145,633,42.9962145,808
43.02247507,682,43.02247507,841
43.04873564,627,43.04873564,772
43.07499621,738,43.07499621,800
43.10125678,605,43.10125678,818
43.12751735,622,43.12751735,822
43.15377792,636,43.15377792,820
43.18003849,665,43.18003849,829
43.20629906,618,43.20629906,777
43.23255963,647,43.23255963,798
43.2588202,678,43.2588202,828
43.28508077,693,43.28508077,837
43.31134134,659,43.31134134,821
43.33760191,599,43.33760191,861
43.36386248,671,43.36386248,844
43.39012305,697,43.39012305,860
43.41638362,684,43.41638362,818
43.44264419,642,43.44264419,866
43.46890476,660,43.46890476,756
43.49516533,634,43.49516533,857
43.5214259,621,43.5214259,799
43.54768647,654,43.54768647,813
43.57394704,609,43.57394704,809
43.60020761,668,43.60020761,869
43.62646818,639,43.62646818,808
43.65272875,623,43.65272875,770
43.67898932,619,43.67898932,796
43.70524989,598,43.70524989,863
43.73151046,625,43.73151046,787
43.75777103,618,43.75777103,854
43.7840316,613,43.7840316,831
43.81029217,620,43.81029217,839
43.83655274,630,43.83655274,755
43.86281331,624,43.86281331,774
43.88907388,601,43.88907388,783
43.91533445,608,43.91533445,815
43.94159502,635,43.94159502,787
43.96785559,660,43.96785559,862
43.99411616,630,43.99411616,765
44.02037673,671,44.02037673,777
44.0466373,607,44.0466373,833
44.07289787,704,44.07289787,775
44.09915844,643,44.09915844,804
44.12541901,636,44.12541901,798
44.15167958,619,44.15167958,755
44.17794015,619,44.17794015,798
44.20420072,596,44.20420072,834
44.23046129,638,44.23046129,820
44.25672186,646,44.25672186,819
44.28298243,586,44.28298243,844
44.309243,628,44.309243,798
44.33550357,621,44.33550357,789
44.36176414,631,44.36176414,830
44.38802471,635,44.38802471,822
44.41428528,680,44.41428528,775
44.44054585,673,44.44054585,875
44.46680642,658,44.46680642,744
44.49306699,649,44.49306699,798
44.51932756,609,44.51932756,782
44.54558813,644,44.54558813,801
44.5718487,620,44.5718487,747
44.59810927,605,44.59810927,821
44.62436984,611,44.62436984,788
44.65063041,642,44.65063041,773
44.67689098,615,44.67689098,851
44.70315155,612,44.70315155,791
44.72941212,632,44.72941212,788
44.75567269,602,44.75567269,787
44.78193326,639,44.78193326,785
44.80819383,592,44.80819383,791
44.8344544,604,44.8344544,803
44.86071497,634,44.86071497,809
44.88697554,674,44.88697554,755
44.91323611,643,44.91323611,819
44.93949668,653,44.93949668,839
44.96575725,639,44.96575725,805
44.99201782,643,44.99201782,880
45.01827839,620,45.01827839,835
45.04453896,660,45.04453896,786
45.07079953,629,45.07079953,789
45.0970601,635,45.0970601,779
45.12332067,589,45.12332067,836
45.14958124,642,45.14958124,805
45.17584181,620,45.17584181,852
45.20210238,647,45.20210238,806
45.22836295,630,45.22836295,793
45.25462352,630,45.25462352,819
45.28088409,615,45.28088409,818
45.30714466,616,45.30714466,810
45.33340523,624,45.33340523,823
45.3596658,619,45.3596658,790
45.38592637,613,45.38592637,836
45.41218694,611,45.41218694,755
45.43844751,572,45.43844751,828
45.46470808,640,45.46470808,817
45.49096865,581,45.49096865,875
45.51722922,598,45.51722922,925
45.54348979,625,45.54348979,972
45.56975036,631,45.56975036,902
45.59601093,673,45.59601093,980
45.6222715,595,45.6222715,1005
45.64853207,584,45.64853207,1101
45.67479264,564,45.67479264,953
45.70105321,620,45.70105321,997
45.72731378,637,45.72731378,979
45.75357435,595,45.75357435,1072
45.77983492,612,45.77983492,1131
45.80609549,618,45.80609549,1200
45.83235606,618,45.83235606,1407
45.85861663,641,45.85861663,1825
45.8848772,541,45.8848772,2391
45.91113777,581,45.91113777,3658
45.93739834,604,45.93739834,5635
45.96365891,569,45.96365891,6433
45.98991948,598,45.98991948,7526
46.01618005,594,46.01618005,9450
46.04244062,602,46.04244062,11273
46.06870119,622,46.06870119,6932
46.09496176,580,46.09496176,3443
46.12122233,672,46.12122233,2193
46.1474829,603,46.1474829,1624
46.17374347,604,46.17374347,1423
46.20000404,622,46.20000404,1349
46.22626461,630,46.22626461,1227
46.25252518,624,46.25252518,1140
46.27878575,671,46.27878575,1087
46.30504632,611,46.30504632,1081
46.33130689,636,46.33130689,1034
46.35756746,607,46.35756746,989
46.38382803,611,46.38382803,987
46.4100886,610,46.4100886,1049
46.43634917,569,46.43634917,955
46.46260974,618,46.46260974,1046
46.48887031,600,46.48887031,992
46.51513088,643,46.51513088,1001
46.54139145,610,46.54139145,980
46.56765202,599,46.56765202,998
46.59391259,582,46.59391259,998
46.62017316,623,46.62017316,957
46.64643373,601,46.64643373,971
46.6726943,601,46.6726943,993
46.69895487,598,46.69895487,955
46.72521544,612,46.72521544,1001
46.75147601,622,46.75147601,998
46.77773658,614,46.77773658,1019
46.80399715,625,46.80399715,1027
46.83025772,627,46.83025772,1003
46.85651829,613,46.85651829,1038
46.88277886,597,46.88277886,972
46.90903943,608,46.90903943,1038
46.9353,587,46.9353,1066
46.96156057,608,46.96156057,1008
46.98782114,634,46.98782114,1035
47.01408171,587,47.01408171,1080
47.04034228,593,47.04034228,1014
47.06660285,638,47.06660285,1022
47.09286342,611,47.09286342,1010
47.11912399,641,47.11912399,966
47.14538456,578,47.14538456,1044
47.17164513,611,47.17164513,993
47.1979057,617,47.1979057,1024
47.22416627,592,47.22416627,1015
47.25042684,613,47.25042684,1037
47.27668741,559,47.27668741,984
47.30294798,618,47.30294798,1077
47.32920855,604,47.32920855,1051
47.35546912,562,47.35546912,1096
47.38172969,576,47.38172969,1028
47.40799026,569,47.40799026,1025
47.43425083,598,47.43425083,999
47.4605114,664,47.4605114,1066
47.48677197,592,47.48677197,1002
47.51303254,590,47.51303254,1038
47.53929311,623,47.53929311,1022
47.56555368,591,47.56555368,1096
47.59181425,593,47.59181425,1021
47.61807482,628,47.61807482,1041
47.64433539,584,47.64433539,1094
47.67059596,596,47.67059596,1011
47.69685653,595,47.69685653,1060
47.7231171,607,47.7231171,1094
47.74937767,608,47.74937767,1028
47.77563824,606,47.77563824,1010
47.80189881,623,47.80189881,975
47.82815938,578,47.82815938,1040
47.85441995,557,47.85441995,1018
47.88068052,620,47.88068052,1060
47.90694109,619,47.90694109,1067
47.93320166,617,47.93320166,1030
47.95946223,560,47.95946223,1027
47.9857228,621,47.9857228,1079
48.01198337,594,48.01198337,1041
48.03824394,653,48.03824394,1094
48.06450451,587,48.06450451,1095
48.09076508,660,48.09076508,1066
48.11702565,642,48.11702565,1067
48.14328622,626,48.14328622,1033
48.16954679,569,48.16954679,1131
48.19580736,632,48.19580736,1077
48.22206793,571,48.22206793,1128
48.2483285,588,48.2483285,1119
48.27458907,610,48.27458907,1124
48.30084964,569,48.30084964,1102
48.32711021,628,48.32711021,1114
48.35337078,566,48.35337078,1061
48.37963135,586,48.37963135,1035
48.40589192,621,48.40589192,1117
48.43215249,615,48.43215249,1180
48.45841306,613,48.45841306,1169
48.48467363,589,48.48467363,1140
48.5109342,616,48.5109342,1222
48.53719477,618,48.53719477,1194
48.56345534,572,48.56345534,1278
48.58971591,630,48.58971591,1269
48.61597648,605,48.61597648,1269
48.64223705,590,48.64223705,1283
48.66849762,599,48.66849762,1282
48.69475819,619,48.69475819,1319
48.72101876,547,48.72101876,1289
48.74727933,574,48.74727933,1302
48.7735399,570,48.7735399,1389
48.79980047,595,48.79980047,1320
48.82606104,613,48.82606104,1408
48.85232161,643,48.85232161,1476
48.87858218,544,48.87858218,1616
48.90484275,613,48.90484275,1748
48.93110332,590,48.93110332,2010
48.95736389,607,48.95736389,2285
48.98362446,597,48.98362446,2679
49.00988503,599,49.00988503,2682
49.0361456,613,49.0361456,2207
49.06240617,599,49.06240617,1797
49.08866674,600,49.08866674,1732
49.11492731,599,49.11492731,1695
49.14118788,630,49.14118788,1765
49.16744845,604,49.16744845,1890
49.19370902,609,49.19370902,2011
49.21996959,610,49.21996959,1993
49.24623016,577,49.24623016,2092
49.27249073,584,49.27249073,2235
49.2987513,595,49.2987513,2476
49.32501187,602,49.32501187,2919
49.35127244,587,49.35127244,3684
49.37753301,579,49.37753301,4967
49.40379358,639,49.40379358,5829
49.43005415,610,49.43005415,6623
49.45631472,630,49.45631472,7085
49.48257529,612,49.48257529,7094
49.50883586,576,49.50883586,7546
49.53509643,581,49.53509643,7731
49.561357,572,49.561357,7994
49.58761757,631,49.58761757,8364
49.61387814,600,49.61387814,8757
49.64013871,580,49.64013871,9108
49.66639928,533,49.66639928,9638
49.69265985,577,49.69265985,10040
49.71892042,596,49.71892042,10254
49.74518099,572,49.74518099,10693
49.77144156,577,49.77144156,11242
49.79770213,589,49.79770213,11317
49.8239627,566,49.8239627,12015
49.85022327,546,49.85022327,12487
49.87648384,613,49.87648384,13114
49.90274441,608,49.90274441,13772
49.92900498,576,49.92900498,14139
49.95526555,563,49.95526555,14776
49.98152612,609,49.98152612,15302
50.00778669,591,50.00778669,15864
50.03404726,561,50.03404726,16553
50.06030783,535,50.06030783,17015
50.0865684,572,50.0865684,17980
50.11282897,563,50.11282897,18602
50.13908954,585,50.13908954,19597
50.16535011,538,50.16535011,20204
50.19161068,603,50.19161068,20807
50.21787125,577,50.21787125,21875
50.24413182,597,50.24413182,22616
50.27039239,570,50.27039239,23489
50.29665296,580,50.29665296,24490
50.32291353,588,50.32291353,25175
50.3491741,578,50.3491741,26067
50.37543467,580,50.37543467,27527
50.40169524,542,50.40169524,28569
50.42795581,605,50.42795581,29419
50.45421638,611,50.45421638,30603
50.48047695,561,50.48047695,32136
50.50673752,628,50.50673752,33287
50.53299809,616,50.53299809,35278
50.55925866,592,50.55925866,36872
50.58551923,569,50.58551923,38498
50.6117798,614,50.6117798,40601
50.63804037,656,50.63804037,42358
50.66430094,591,50.66430094,45245
50.69056151,575,50.69056151,48060
50.71682208,582,50.71682208,50906
50.74308265,658,50.74308265,55735
50.76934322,586,50.76934322,60720
50.79560379,581,50.79560379,66425
50.82186436,584,50.82186436,72922
50.84812493,572,50.84812493,82485
50.8743855,596,50.8743855,94676
50.90064607,576,50.90064607,110569
50.92690664,586,50.92690664,134029
50.95316721,642,50.95316721,169025
50.97942778,597,50.97942778,221927
51.00568835,594,51.00568835,297321
51.03194892,549,51.03194892,388033
51.05820949,603,51.05820949,473251
51.08447006,540,51.08447006,573035
51.11073063,625,51.11073063,741647
51.1369912,603,51.1369912,1071415
51.16325177,573,51.16325177,1687251
51.18951234,601,51.18951234,2837206
51.21577291,523,51.21577291,5027337
51.24203348,581,51.24203348,9460636
51.26829405,579,51.26829405,18898042
51.29455462,609,51.29455462,18558916
51.32081519,579,51.32081519,7427265
51.34707576,605,51.34707576,4241801
51.37333633,625,51.37333633,4820007
51.3995969,590,51.3995969,8111768
51.42585747,595,51.42585747,9749017
51.45211804,556,51.45211804,4343278
51.47837861,567,51.47837861,1595922
51.50463918,552,51.50463918,783855
51.53089975,621,51.53089975,471562
51.55716032,605,51.55716032,319391
51.58342089,567,51.58342089,232221
51.60968146,596,51.60968146,178830
51.63594203,603,51.63594203,142260
51.6622026,596,51.6622026,118088
51.68846317,573,51.68846317,99076
51.71472374,540,51.71472374,85325
51.74098431,577,51.74098431,73416
51.76724488,572,51.76724488,64682
51.79350545,619,51.79350545,57468
51.81976602,626,51.81976602,51835
51.84602659,618,51.84602659,47134
51.87228716,606,51.87228716,43651
51.89854773,628,51.89854773,39760
51.9248083,564,51.9248083,37008
51.95106887,604,51.95106887,33984
51.97732944,615,51.97732944,32164
52.00359001,654,52.00359001,29826
52.02985058,625,52.02985058,27527
52.05611115,574,52.05611115,25478
52.08237172,673,52.08237172,24015
52.10863229,676,52.10863229,22787
52.13489286,637,52.13489286,20986
52.16115343,624,52.16115343,19792
52.187414,623,52.187414,18529
52.21367457,659,52.21367457,17405
52.23993514,627,52.23993514,16189
52.26619571,585,52.26619571,15046
52.29245628,665,52.29245628,14295
52.31871685,643,52.31871685,13591
52.34497742,720,52.34497742,12753
52.37123799,749,52.37123799,12122
52.39749856,786,52.39749856,11552
52.42375913,1076,52.42375913,10783
52.4500197,1730,52.4500197,10319
52.47628027,2178,52.47628027,9894
52.50254084,2141,52.50254084,9154
52.52880141,2698,52.52880141,8964
52.55506198,3997,52.55506198,8457
52.58132255,3314,52.58132255,7969
52.60758312,1581,52.60758312,7709
52.63384369,1081,52.63384369,7212
52.66010426,850,52.66010426,6811
52.68636483,795,52.68636483,6462
52.7126254,764,52.7126254,6320
52.73888597,685,52.73888597,5923
52.76514654,692,52.76514654,5783
52.79140711,725,52.79140711,5475
52.81766768,659,52.81766768,5195
52.84392825,654,52.84392825,5088
52.87018882,625,52.87018882,4788
52.89644939,659,52.89644939,4765
52.92270996,613,52.92270996,4491
52.94897053,605,52.94897053,4378
52.9752311,611,52.9752311,4156
53.00149167,640,53.00149167,3964
53.02775224,599,53.02775224,3908
53.05401281,607,53.05401281,3870
53.08027338,627,53.08027338,3537
53.10653395,624,53.10653395,3465
53.13279452,615,53.13279452,3489
53.15905509,634,53.15905509,3304
53.18531566,657,53.18531566,3227
53.21157623,640,53.21157623,3072
53.2378368,621,53.2378368,3141
53.26409737,591,53.26409737,2951
53.29035794,609,53.29035794,3002
53.31661851,637,53.31661851,2938
53.34287908,627,53.34287908,2806
53.36913965,655,53.36913965,2732
53.39540022,612,53.39540022,2716
53.42166079,628,53.42166079,2582
53.44792136,655,53.44792136,2615
53.47418193,636,53.47418193,2621
53.5004425,676,53.5004425,2532
53.52670307,614,53.52670307,2481
53.55296364,641,53.55296364,2479
53.57922421,669,53.57922421,2349
53.60548478,663,53.60548478,2330
53.63174535,645,53.63174535,2341
53.65800592,646,53.65800592,2234
53.68426649,672,53.68426649,2216
53.71052706,615,53.71052706,2169
53.73678763,648,53.73678763,2158
53.7630482,608,53.7630482,2111
53.78930877,611,53.78930877,2109
53.81556934,632,53.81556934,2116
53.84182991,587,53.84182991,2024
53.86809048,602,53.86809048,2014
53.89435105,646,53.89435105,1941
53.92061162,592,53.92061162,1932
53.94687219,633,53.94687219,1868
53.97313276,620,53.97313276,1874
53.99939333,657,53.99939333,1931
54.0256539,653,54.0256539,1917
54.05191447,630,54.05191447,1784
54.07817504,642,54.07817504,1803
54.10443561,586,54.10443561,1770
54.13069618,597,54.13069618,1718
54.15695675,664,54.15695675,1720
54.18321732,628,54.18321732,1758
54.20947789,588,54.20947789,1637
54.23573846,647,54.23573846,1621
54.26199903,645,54.26199903,1684
54.2882596,642,54.2882596,1547
54.31452017,673,54.31452017,1622
54.34078074,631,54.34078074,1604
54.36704131,625,54.36704131,1644
54.39330188,663,54.39330188,1516
54.41956245,643,54.41956245,1575
54.44582302,646,54.44582302,1551
54.47208359,589,54.47208359,1443
54.49834416,646,54.49834416,1423
54.52460473,650,54.52460473,1527
54.5508653,634,54.5508653,1404
54.57712587,643,54.57712587,1405
54.60338644,625,54.60338644,1377
54.62964701,667,54.62964701,1351
54.65590758,629,54.65590758,1371
54.68216815,633,54.68216815,1342
54.70842872,644,54.70842872,1279
54.73468929,654,54.73468929,1328
54.76094986,646,54.76094986,1297
54.78721043,635,54.78721043,1328
54.813471,679,54.813471,1317
54.83973157,624,54.83973157,1226
54.86599214,670,54.86599214,1252
54.89225271,649,54.89225271,1258
54.91851328,655,54.91851328,1243
54.94477385,666,54.94477385,1221
54.97103442,646,54.97103442,1232
54.99729499,647,54.99729499,1238
55.02355556,627,55.02355556,1162
55.04981613,632,55.04981613,1198
55.0760767,618,55.0760767,1193
55.10233727,650,55.10233727,1217
55.12859784,645,55.12859784,1143
55.15485841,635,55.15485841,1144
55.18111898,634,55.18111898,1119
55.20737955,643,55.20737955,1156
55.23364012,644,55.23364012,1107
55.25990069,626,55.25990069,1151
55.28616126,644,55.28616126,1186
55.31242183,629,55.31242183,1209
55.3386824,644,55.3386824,1176
55.36494297,621,55.36494297,1282
55.39120354,665,55.39120354,1236
55.41746411,708,55.41746411,1254
55.44372468,665,55.44372468,1228
55.46998525,705,55.46998525,1218
55.49624582,645,55.49624582,1270
55.52250639,716,55.52250639,1183
55.54876696,655,55.54876696,1215
55.57502753,720,55.57502753,1134
55.6012881,712,55.6012881,1160
55.62754867,676,55.62754867,1179
55.65380924,652,55.65380924,1163
55.68006981,680,55.68006981,1151
55.70633038,702,55.70633038,1183
55.73259095,686,55.73259095,1061
55.75885152,690,55.75885152,1058
55.78511209,741,55.78511209,1062
55.81137266,689,55.81137266,1086
55.83763323,719,55.83763323,1146
55.8638938,762,55.8638938,1062
55.89015437,710,55.89015437,1061
55.91641494,773,55.91641494,1050
55.94267551,803,55.94267551,988
55.96893608,990,55.96893608,1048
55.99519665,1214,55.99519665,1035
56.02145722,1166,56.02145722,1015
56.04771779,891,56.04771779,1052
56.07397836,860,56.07397836,1062
56.10023893,778,56.10023893,1035
56.1264995,801,56.1264995,1032
56.15276007,838,56.15276007,958
56.17902064,790,56.17902064,1031
56.20528121,845,56.20528121,1028
56.23154178,837,56.23154178,1011
56.25780235,853,56.25780235,1009
56.28406292,870,56.28406292,1080
56.31032349,846,56.31032349,1017
56.33658406,899,56.33658406,1030
56.36284463,878,56.36284463,968
56.3891052,1045,56.3891052,966
56.41536577,1233,56.41536577,977
56.44162634,1462,56.44162634,997
56.46788691,1762,56.46788691,1031
56.49414748,1969,56.49414748,949
56.52040805,2202,56.52040805,954
56.54666862,2124,56.54666862,1020
56.57292919,2159,56.57292919,1012
56.59918976,2268,56.59918976,1008
56.62545033,2299,56.62545033,979
56.6517109,2338,56.6517109,978
56.67797147,2467,56.67797147,1029
56.70423204,2568,56.70423204,911
56.73049261,2666,56.73049261,964
56.75675318,2653,56.75675318,975
56.78301375,2740,56.78301375,989
56.80927432,2930,56.80927432,973
56.83553489,2864,56.83553489,959
56.86179546,3020,56.86179546,1036
56.88805603,3214,56.88805603,991
56.9143166,3249,56.9143166,952
56.94057717,3377,56.94057717,958
56.96683774,3438,56.96683774,958
56.99309831,3516,56.99309831,971
57.01935888,3544,57.01935888,946
57.04561945,3794,57.04561945,931
57.07188002,3861,57.07188002,946
57.09814059,3987,57.09814059,967
57.12440116,4107,57.12440116,937
57.15066173,4282,57.15066173,916
57.1769223,4377,57.1769223,944
57.20318287,4634,57.20318287,910
57.22944344,4702,57.22944344,893
57.25570401,4768,57.25570401,949
57.28196458,4902,57.28196458,944
57.30822515,5064,57.30822515,910
57.33448572,5205,57.33448572,891
57.36074629,5423,57.36074629,960
57.38700686,5665,57.38700686,924
57.41326743,5649,57.41326743,895
57.439528,5911,57.439528,960
57.46578857,6044,57.46578857,966
57.49204914,6311,57.49204914,926
57.51830971,6311,57.51830971,930
57.54457028,6554,57.54457028,948
57.57083085,6938,57.57083085,961
57.59709142,6932,57.59709142,954
57.62335199,7390,57.62335199,891
57.64961256,7558,57.64961256,922
57.67587313,7664,57.67587313,905
57.7021337,7964,57.7021337,907
57.72839427,8068,57.72839427,961
57.75465484,8502,57.75465484,901
57.78091541,8768,57.78091541,897
57.80717598,8885,57.80717598,915
57.83343655,9447,57.83343655,847
57.85969712,9684,57.85969712,898
57.88595769,10196,57.88595769,888
57.91221826,10537,57.91221826,904
57.93847883,10959,57.93847883,805
57.9647394,11427,57.9647394,922
57.99099997,11834,57.99099997,831
58.01726054,12663,58.01726054,870
58.04352111,13242,58.04352111,898
58.06978168,14218,58.06978168,867
58.09604225,15368,58.09604225,869
58.12230282,16214,58.12230282,857
58.14856339,17966,58.14856339,932
58.17482396,19045,58.17482396,870
58.20108453,20833,58.20108453,893
58.2273451,23036,58.2273451,851
58.25360567,25700,58.25360567,858
58.27986624,30422,58.27986624,881
58.30612681,37060,58.30612681,844
58.33238738,48922,58.33238738,849
58.35864795,66951,58.35864795,900
58.38490852,85663,58.38490852,837
58.41116909,95511,58.41116909,920
58.43742966,99141,58.43742966,841
58.46369023,100445,58.46369023,859
58.4899508,113893,58.4899508,819
58.51621137,140533,58.51621137,848
58.54247194,188256,58.54247194,871
58.56873251,276162,58.56873251,914
58.59499308,454484,58.59499308,871
58.62125365,950934,58.62125365,911
58.64751422,3601617,58.64751422,866
58.67377479,9073633,58.67377479,855
58.70003536,3688674,58.70003536,840
58.72629593,1008966,58.72629593,824
58.7525565,512969,58.7525565,896
58.77881707,578969,58.77881707,903
58.80507764,1555744,58.80507764,902
58.83133821,4129867,58.83133821,879
58.85759878,2207989,58.85759878,889
58.88385935,587554,58.88385935,801
58.91011992,228477,58.91011992,849
58.93638049,130654,58.93638049,805
58.96264106,89747,58.96264106,873
58.98890163,67029,58.98890163,869
59.0151622,53162,59.0151622,879
59.04142277,43465,59.04142277,855
59.06768334,36207,59.06768334,832
59.09394391,30763,59.09394391,869
59.12020448,26050,59.12020448,866
59.14646505,22713,59.14646505,864
59.17272562,20279,59.17272562,861
59.19898619,18172,59.19898619,878
59.22524676,16356,59.22524676,840
59.25150733,15203,59.25150733,845
59.2777679,13815,59.2777679,830
59.30402847,12659,59.30402847,884
59.33028904,11719,59.33028904,842
59.35654961,11021,59.35654961,864
59.38281018,10264,59.38281018,840
59.40907075,9675,59.40907075,846
59.43533132,9199,59.43533132,875
59.46159189,8664,59.46159189,894
59.48785246,8271,59.48785246,814
59.51411303,7931,59.51411303,903
59.5403736,7316,59.5403736,849
59.56663417,6927,59.56663417,906
59.59289474,6543,59.59289474,828
59.61915531,6032,59.61915531,875
59.64541588,5910,59.64541588,840
59.67167645,5540,59.67167645,843
59.69793702,5305,59.69793702,819
59.72419759,5077,59.72419759,808
59.75045816,4877,59.75045816,829
59.77671873,4532,59.77671873,849
59.8029793,4436,59.8029793,846
59.82923987,4228,59.82923987,861
59.85550044,3893,59.85550044,905
59.88176101,3910,59.88176101,849
59.90802158,3637,59.90802158,879
59.93428215,3521,59.93428215,837
59.96054272,3403,59.96054272,869
59.98680329,3242,59.98680329,860
60.01306386,3123,60.01306386,869
60.03932443,2919,60.03932443,910
60.065585,2835,60.065585,779
60.09184557,2718,60.09184557,826
60.11810614,2662,60.11810614,875
60.14436671,2479,60.14436671,875
60.17062728,2508,60.17062728,826
60.19688785,2439,60.19688785,881
60.22314842,2394,60.22314842,884
60.24940899,2280,60.24940899,853
60.27566956,2080,60.27566956,864
60.30193013,2023,60.30193013,810
60.3281907,2064,60.3281907,823
60.35445127,2023,60.35445127,890
60.38071184,1937,60.38071184,888
60.40697241,1823,60.40697241,857
60.43323298,1794,60.43323298,822
60.45949355,1657,60.45949355,814
60.48575412,1670,60.48575412,882
60.51201469,1642,60.51201469,816
60.53827526,1679,60.53827526,902
60.56453583,1619,60.56453583,804
60.5907964,1618,60.5907964,865
60.61705697,1559,60.61705697,857
60.64331754,1464,60.64331754,830
60.66957811,1508,60.66957811,793
60.69583868,1432,60.69583868,910
60.72209925,1388,60.72209925,868
60.74835982,1351,60.74835982,814
60.77462039,1364,60.77462039,836
60.80088096,1320,60.80088096,839
60.82714153,1310,60.82714153,810
60.8534021,1366,60.8534021,894
60.87966267,1318,60.87966267,924
60.90592324,1263,60.90592324,887
60.93218381,1214,60.93218381,837
60.95844438,1164,60.95844438,883
60.98470495,1254,60.98470495,875
61.01096552,1142,61.01096552,887
61.03722609,1183,61.03722609,889
61.06348666,1119,61.06348666,839
61.08974723,1175,61.08974723,885
61.1160078,1136,61.1160078,835
61.14226837,1142,61.14226837,818
61.16852894,1125,61.16852894,881
61.19478951,1086,61.19478951,850
61.22105008,1089,61.22105008,828
61.24731065,1045,61.24731065,845
61.27357122,1056,61.27357122,894
61.29983179,1107,61.29983179,868
61.32609236,1063,61.32609236,936
61.35235293,1087,61.35235293,829
61.3786135,1011,61.3786135,855
61.40487407,1029,61.40487407,877
61.43113464,1005,61.43113464,838
61.45739521,1027,61.45739521,869
61.48365578,1073,61.48365578,904
61.50991635,1053,61.50991635,860
61.53617692,999,61.53617692,875
61.56243749,1068,61.56243749,887
61.58869806,929,61.58869806,870
61.61495863,1006,61.61495863,868
61.6412192,957,61.6412192,906
61.66747977,940,61.66747977,885
61.69374034,958,61.69374034,838
61.72000091,971,61.72000091,884
61.74626148,973,61.74626148,886
61.77252205,982,61.77252205,881
61.79878262,947,61.79878262,845
61.82504319,970,61.82504319,841
61.85130376,982,61.85130376,831
61.87756433,912,61.87756433,877
61.9038249,900,61.9038249,894
61.93008547,908,61.93008547,824
61.95634604,883,61.95634604,847
61.98260661,935,61.98260661,846
62.00886718,956,62.00886718,849
62.03512775,917,62.03512775,855
62.06138832,933,62.06138832,844
62.08764889,928,62.08764889,858
62.11390946,884,62.11390946,855
62.14017003,905,62.14017003,879
62.1664306,897,62.1664306,855
62.19269117,932,62.19269117,899
62.21895174,900,62.21895174,853
62.24521231,871,62.24521231,858
62.27147288,869,62.27147288,868
62.29773345,907,62.29773345,843
62.32399402,889,62.32399402,870
62.35025459,906,62.35025459,845
62.37651516,846,62.37651516,917
62.40277573,899,62.40277573,867
62.4290363,835,62.4290363,859
62.45529687,924,62.45529687,834
62.48155744,825,62.48155744,816
62.50781801,821,62.50781801,846
62.53407858,820,62.53407858,796
62.56033915,793,62.56033915,787
62.58659972,796,62.58659972,789
62.61286029,850,62.61286029,837
62.63912086,814,62.63912086,837
62.66538143,818,62.66538143,850
62.691642,812,62.691642,836
62.71790257,831,62.71790257,874
62.74416314,793,62.74416314,873
62.77042371,828,62.77042371,837
62.79668428,793,62.79668428,904
62.82294485,770,62.82294485,835
62.84920542,783,62.84920542,829
62.87546599,794,62.87546599,753
62.90172656,774,62.90172656,764
62.92798713,794,62.92798713,785
62.9542477,823,62.9542477,845
62.98050827,721,62.98050827,772
63.00676884,812,63.00676884,816
63.03302941,829,63.03302941,842
63.05928998,760,63.05928998,854
63.08555055,770,63.08555055,890
63.11181112,762,63.11181112,836
63.13807169,766,63.13807169,790
63.16433226,782,63.16433226,870
63.19059283,768,63.19059283,811
63.2168534,747,63.2168534,842
63.24311397,753,63.24311397,845
63.26937454,768,63.26937454,846
63.29563511,708,63.29563511,824
63.32189568,815,63.32189568,845
63.34815625,778,63.34815625,815
63.37441682,781,63.37441682,774
63.40067739,798,63.40067739,822
63.42693796,808,63.42693796,825
63.45319853,812,63.45319853,779
63.4794591,724,63.4794591,835
63.50571967,759,63.50571967,855
63.53198024,762,63.53198024,784
63.55824081,816,63.55824081,816
63.58450138,749,63.58450138,782
63.61076195,787,63.61076195,817
63.63702252,775,63.63702252,767
63.66328309,727,63.66328309,860
63.68954366,808,63.68954366,803
63.71580423,773,63.71580423,815
63.7420648,787,63.7420648,854
63.76832537,789,63.76832537,876
63.79458594,755,63.79458594,813
63.82084651,766,63.82084651,774
63.84710708,776,63.84710708,815
63.87336765,738,63.87336765,856
63.89962822,773,63.89962822,766
63.92588879,760,63.92588879,803
63.95214936,730,63.95214936,839
63.97840993,689,63.97840993,806
64.0046705,727,64.0046705,811
64.03093107,758,64.03093107,814
64.05719164,724,64.05719164,848
64.08345221,706,64.08345221,798
64.10971278,766,64.10971278,841
64.13597335,715,64.13597335,818
64.16223392,718,64.16223392,833
64.18849449,731,64.18849449,818
64.21475506,749,64.21475506,836
64.24101563,785,64.24101563,798
64.2672762,768,64.2672762,851
64.29353677,785,64.29353677,835
64.31979734,744,64.31979734,796
64.34605791,710,64.34605791,832
64.37231848,712,64.37231848,836
64.39857905,736,64.39857905,802
64.42483962,696,64.42483962,809
64.45110019,733,64.45110019,788
64.47736076,745,64.47736076,767
64.50362133,724,64.50362133,837
64.5298819,755,64.5298819,799
64.55614247,778,64.55614247,821
64.58240304,760,64.58240304,770
64.60866361,698,64.60866361,792
64.63492418,827,64.63492418,872
64.66118475,706,64.66118475,825
64.68744532,713,64.68744532,803
64.71370589,723,64.71370589,776
64.73996646,784,64.73996646,800
64.76622703,739,64.76622703,782
64.7924876,710,64.7924876,803
64.81874817,686,64.81874817,863
64.84500874,721,64.84500874,776
64.87126931,744,64.87126931,758
64.89752988,690,64.89752988,847
64.92379045,710,64.92379045,838
64.95005102,739,64.95005102,815
64.97631159,708,64.97631159,777
65.00257216,727,65.00257216,773
65.02883273,690,65.02883273,806
65.0550933,695,65.0550933,824
65.08135387,713,65.08135387,857
65.10761444,694,65.10761444,842
65.13387501,722,65.13387501,824
65.16013558,734,65.16013558,867
65.18639615,738,65.18639615,876
65.21265672,706,65.21265672,866
65.23891729,679,65.23891729,800
65.26517786,730,65.26517786,821
65.29143843,712,65.29143843,793
65.317699,700,65.317699,760
65.34395957,744,65.34395957,838
65.37022014,701,65.37022014,837
65.39648071,645,65.39648071,819
65.42274128,751,65.42274128,824
65.44900185,715,65.44900185,751
65.47526242,709,65.47526242,854
65.50152299,751,65.50152299,834
65.52778356,710,65.52778356,794
65.55404413,716,65.55404413,806
65.5803047,751,65.5803047,789
65.60656527,690,65.60656527,818
65.63282584,713,65.63282584,739
65.65908641,691,65.65908641,834
65.68534698,717,65.68534698,813
65.71160755,704,65.71160755,899
65.73786812,688,65.73786812,810
65.76412869,715,65.76412869,806
65.79038926,689,65.79038926,791
65.81664983,727,65.81664983,809
65.8429104,688,65.8429104,783
65.86917097,698,65.86917097,822
65.89543154,729,65.89543154,829
65.92169211,703,65.92169211,798
65.94795268,735,65.94795268,792
65.97421325,675,65.97421325,803
66.00047382,698,66.00047382,782
66.02673439,699,66.02673439,835
66.05299496,708,66.05299496,749
66.07925553,724,66.07925553,798
66.1055161,714,66.1055161,822
66.13177667,704,66.13177667,801
66.15803724,672,66.15803724,772
66.18429781,722,66.18429781,785
66.21055838,693,66.21055838,806
66.23681895,699,66.23681895,825
66.26307952,656,66.26307952,818
66.28934009,646,66.28934009,802
66.31560066,730,66.31560066,777
66.34186123,700,66.34186123,859
66.3681218,658,66.3681218,806
66.39438237,680,66.39438237,848
66.42064294,700,66.42064294,776
66.44690351,711,66.44690351,793
66.47316408,726,66.47316408,832
66.49942465,707,66.49942465,857
66.52568522,708,66.52568522,796
66.55194579,694,66.55194579,799
66.57820636,728,66.57820636,835
66.60446693,703,66.60446693,837
66.6307275,697,66.6307275,819
66.65698807,673,66.65698807,829
66.68324864,692,66.68324864,790
66.70950921,656,66.70950921,844
66.73576978,667,66.73576978,801
66.76203035,689,66.76203035,808
66.78829092,687,66.78829092,809
66.81455149,742,66.81455149,788
66.84081206,729,66.84081206,769
66.86707263,715,66.86707263,821
66.8933332,677,66.8933332,833
66.91959377,648,66.91959377,801
66.94585434,696,66.94585434,790
66.97211491,660,66.97211491,812
66.99837548,659,66.99837548,804
67.02463605,671,67.02463605,789
67.05089662,652,67.05089662,803
67.07715719,687,67.07715719,799
67.10341776,639,67.10341776,767
67.12967833,714,67.12967833,812
67.1559389,749,67.1559389,807
67.18219947,718,67.18219947,790
67.20846004,727,67.20846004,784
67.23472061,650,67.23472061,777
67.26098118,719,67.26098118,784
67.28724175,711,67.28724175,787
67.31350232,672,67.31350232,782
67.33976289,727,67.33976289,833
67.36602346,635,67.36602346,788
67.39228403,696,67.39228403,788
67.4185446,705,67.4185446,762
67.44480517,710,67.44480517,790
67.47106574,693,67.47106574,780
67.49732631,719,67.49732631,792
67.52358688,747,67.52358688,803
67.54984745,697,67.54984745,815
67.57610802,632,67.57610802,827
67.60236859,659,67.60236859,818
67.62862916,659,67.62862916,768
67.65488973,681,67.65488973,824
67.6811503,700,67.6811503,794
67.70741087,683,67.70741087,816
67.73367144,705,67.73367144,772
67.75993201,670,67.75993201,812
67.78619258,752,67.78619258,734
67.81245315,720,67.81245315,821
67.83871372,738,67.83871372,854
67.86497429,652,67.86497429,835
67.89123486,680,67.89123486,789
67.91749543,670,67.91749543,848
67.943756,664,67.943756,812
67.97001657,715,67.97001657,768
67.99627714,735,67.99627714,775
68.02253771,679,68.02253771,754
68.04879828,754,68.04879828,865
68.07505885,673,68.07505885,792
68.10131942,638,68.10131942,816
68.12757999,695,68.12757999,779
68.15384056,686,68.15384056,784
68.18010113,685,68.18010113,853
68.2063617,670,68.2063617,857
68.23262227,682,68.23262227,769
68.25888284,645,68.25888284,832
68.28514341,640,68.28514341,884
68.31140398,664,68.31140398,802
68.33766455,662,68.33766455,755
68.36392512,680,68.36392512,770
68.39018569,691,68.39018569,762
68.41644626,674,68.41644626,785
68.44270683,715,68.44270683,837
68.4689674,670,68.4689674,774
68.49522797,715,68.49522797,795
68.52148854,687,68.52148854,796
68.54774911,678,68.54774911,768
68.57400968,700,,
68.60027025,630,,
68.62653082,704,,
68.65279139,625,,
68.67905196,707,,
68.70531253,695,,
68.7315731,715,,
68.75783367,730,,
68.78409424,667,,
68.81035481,703,,
68.83661538,736,,
68.86287595,716,,
68.88913652,645,,
68.91539709,679,,
68.94165766,704,,
68.96791823,708,,
68.9941788,680,,
69.02043937,647,,
69.04669994,699,,
69.07296051,698,,
69.09922108,727,,
69.12548165,665,,
69.15174222,724,,
69.17800279,710,,
69.20426336,661,,
69.23052393,672,,
69.2567845,687,,
69.28304507,662,,
69.30930564,738,,
69.33556621,665,,
69.36182678,689,,
69.38808735,720,,
69.41434792,690,,
69.44060849,726,,
69.46686906,625,,
69.49312963,702,,
69.5193902,684,,
69.54565077,727,,
69.57191134,637,,
69.59817191,706,,
69.62443248,710,,
69.65069305,696,,
69.67695362,661,,
69.70321419,680,,
69.72947476,692,,
69.75573533,663,,
69.7819959,711,,
69.80825647,663,,
69.83451704,717,,
69.86077761,671,,
69.88703818,695,,
69.91329875,670,,
69.93955932,711,,
69.96581989,732,,
69.99208046,697,,
70.01834103,732,,
70.0446016,739,,
70.07086217,645,,
70.09712274,660,,
70.12338331,665,,
70.14964388,684,,
70.17590445,753,,
70.20216502,710,,
70.22842559,682,,
70.25468616,672,,
70.28094673,696,,
70.3072073,701,,
70.33346787,683,,
70.35972844,659,,
70.38598901,693,,
70.41224958,692,,
70.43851015,667,,
70.46477072,692,,
70.49103129,685,,
70.51729186,678,,
70.54355243,668,,
70.569813,691,,
70.59607357,696,,
70.62233414,706,,
70.64859471,671,,
70.67485528,685,,
70.70111585,646,,
70.72737642,654,,
70.75363699,680,,
70.77989756,673,,
70.80615813,700,,
70.8324187,726,,
70.85867927,678,,
70.88493984,658,,
70.91120041,682,,
70.93746098,651,,
70.96372155,741,,
70.98998212,669,,
71.01624269,642,,
71.04250326,684,,
71.06876383,681,,
71.0950244,707,,
71.12128497,672,,
71.14754554,665,,
71.17380611,707,,
71.20006668,655,,
71.22632725,668,,
71.25258782,705,,
71.27884839,668,,
71.30510896,707,,
71.33136953,735,,
71.3576301,746,,
71.38389067,684,,
71.41015124,698,,
71.43641181,664,,
71.46267238,696,,
71.48893295,666,,
71.51519352,674,,
71.54145409,700,,
71.56771466,709,,
71.59397523,711,,
71.6202358,699,,
71.64649637,656,,
71.67275694,707,,
71.69901751,703,,
71.72527808,716,,
71.75153865,694,,
71.77779922,687,,
71.80405979,660,,
71.83032036,688,,
71.85658093,684,,
71.8828415,658,,
71.90910207,659,,
71.93536264,681,,
71.96162321,714,,
71.98788378,672,,
72.01414435,679,,
72.04040492,681,,
72.06666549,669,,
72.09292606,702,,
72.11918663,683,,
72.1454472,667,,
72.17170777,726,,
72.19796834,674,,
72.22422891,667,,
72.25048948,690,,
72.27675005,641,,
72.30301062,718,,
72.32927119,664,,
72.35553176,691,,
72.38179233,682,,
72.4080529,720,,
72.43431347,707,,
72.46057404,731,,
72.48683461,660,,
72.51309518,700,,
72.53935575,750,,
72.56561632,745,,
72.59187689,673,,
72.61813746,736,,
72.64439803,688,,
72.6706586,651,,
72.69691917,704,,
72.72317974,637,,
72.74944031,641,,
72.77570088,676,,
72.80196145,675,,
72.82822202,748,,
72.85448259,712,,
72.88074316,665,,
72.90700373,703,,
72.9332643,694,,
72.95952487,712,,
72.98578544,672,,
73.01204601,675,,
73.03830658,654,,
73.06456715,669,,
73.09082772,695,,
73.11708829,670,,
73.14334886,662,,
73.16960943,615,,
73.19587,702,,
73.22213057,654,,
73.24839114,721,,
73.27465171,698,,
73.30091228,672,,
73.32717285,648,,
73.35343342,685,,
73.37969399,689,,
73.40595456,715,,
73.43221513,679,,
73.4584757,674,,
73.48473627,717,,
73.51099684,716,,
73.53725741,706,,
73.56351798,696,,
73.58977855,679,,
73.61603912,688,,
73.64229969,684,,
73.66856026,689,,
73.69482083,697,,
73.7210814,654,,
73.74734197,703,,
73.77360254,635,,
73.79986311,639,,
73.82612368,670,,
73.85238425,713,,
73.87864482,737,,
73.90490539,734,,
73.93116596,658,,
73.95742653,689,,
73.9836871,729,,
74.00994767,674,,
74.03620824,663,,
74.06246881,711,,
74.08872938,704,,
74.11498995,670,,
74.14125052,698,,
74.16751109,709,,
74.19377166,693,,
74.22003223,696,,
74.2462928,677,,
74.27255337,666,,
74.29881394,693,,
74.32507451,747,,
74.35133508,727,,
74.37759565,706,,
74.40385622,712,,
74.43011679,676,,
74.45637736,718,,
74.48263793,740,,
74.5088985,673,,
74.53515907,688,,
74.56141964,697,,
74.58768021,692,,
74.61394078,713,,
74.64020135,717,,
74.66646192,691,,
74.69272249,707,,
74.71898306,709,,
74.74524363,686,,
74.7715042,655,,
74.79776477,728,,
74.82402534,661,,
74.85028591,639,,
74.87654648,717,,
74.90280705,661,,
74.92906762,666,,
74.95532819,744,,
74.98158876,756,,
75.00784933,676,,
75.0341099,663,,
75.06037047,689,,
75.08663104,680,,
75.11289161,680,,
75.13915218,725,,
75.16541275,682,,
75.19167332,696,,
75.21793389,665,,
75.24419446,664,,
75.27045503,701,,
75.2967156,712,,
75.32297617,736,,
75.34923674,684,,
75.37549731,671,,
75.40175788,677,,
75.42801845,698,,
75.45427902,700,,
75.48053959,681,,
75.50680016,664,,
75.53306073,674,,
75.5593213,698,,
75.58558187,722,,
75.61184244,648,,
75.63810301,679,,
75.66436358,684,,
75.69062415,700,,
75.71688472,734,,
75.74314529,652,,
75.76940586,699,,
75.79566643,681,,
75.821927,690,,
75.84818757,660,,
75.87444814,690,,
75.90070871,677,,
75.92696928,638,,
75.95322985,702,,
75.97949042,694,,
76.00575099,705,,
76.03201156,680,,
76.05827213,687,,
76.0845327,652,,
76.11079327,694,,
76.13705384,701,,
76.16331441,682,,
76.18957498,711,,
76.21583555,657,,
76.24209612,712,,
76.26835669,699,,
76.29461726,688,,
76.32087783,698,,
76.3471384,742,,
76.37339897,692,,
76.39965954,711,,
76.42592011,689,,
76.45218068,685,,
76.47844125,693,,
76.50470182,672,,
76.53096239,671,,
76.55722296,679,,
76.58348353,701,,
76.6097441,710,,
76.63600467,689,,
76.66226524,675,,
76.68852581,684,,
76.71478638,712,,
76.74104695,715,,
76.76730752,646,,
76.79356809,714,,
76.81982866,703,,
76.84608923,667,,
76.8723498,709,,
76.89861037,700,,
76.92487094,697,,
76.95113151,696,,
76.97739208,673,,
77.00365265,689,,
77.02991322,703,,
77.05617379,693,,
77.08243436,750,,
77.10869493,707,,
77.1349555,731,,
77.16121607,704,,
77.18747664,668,,
77.21373721,717,,
77.23999778,687,,
77.26625835,696,,
77.29251892,684,,
77.31877949,628,,
77.34504006,674,,
77.37130063,682,,
77.3975612,671,,
77.42382177,665,,
77.45008234,672,,
77.47634291,692,,
77.50260348,723,,
77.52886405,689,,
77.55512462,681,,
77.58138519,686,,
77.60764576,700,,
77.63390633,719,,
77.6601669,701,,
77.68642747,678,,
77.71268804,703,,
77.73894861,670,,
77.76520918,704,,
77.79146975,744,,
77.81773032,710,,
77.84399089,692,,
77.87025146,709,,
77.89651203,705,,
77.9227726,645,,
77.94903317,711,,
77.97529374,707,,
78.00155431,703,,
78.02781488,754,,
78.05407545,747,,
78.08033602,677,,
78.10659659,733,,
78.13285716,693,,
78.15911773,718,,
78.1853783,693,,
78.21163887,709,,
78.23789944,729,,
78.26416001,694,,
78.29042058,684,,
78.31668115,709,,
78.34294172,699,,
78.36920229,733,,
78.39546286,696,,
78.42172343,681,,
78.447984,701,,
78.47424457,702,,
78.50050514,722,,
78.52676571,685,,
78.55302628,708,,
78.57928685,663,,
78.60554742,692,,
78.63180799,689,,
78.65806856,699,,
78.68432913,728,,
78.7105897,703,,
78.73685027,722,,
78.76311084,700,,
78.78937141,702,,
78.81563198,685,,
78.84189255,728,,
78.86815312,684,,
78.89441369,691,,
78.92067426,765,,
78.94693483,694,,
78.9731954,696,,
78.99945597,719,,
79.02571654,700,,
79.05197711,690,,
79.07823768,748,,
79.10449825,694,,
79.13075882,737,,
79.15701939,685,,
79.18327996,710,,
79.20954053,707,,
79.2358011,709,,
79.26206167,699,,
79.28832224,738,,
79.31458281,720,,
79.34084338,699,,
79.36710395,698,,
79.39336452,723,,
79.41962509,713,,
79.44588566,709,,
79.47214623,736,,
79.4984068,706,,
79.52466737,758,,
79.55092794,708,,
79.57718851,734,,
79.60344908,709,,
79.62970965,744,,
79.65597022,718,,
79.68223079,767,,
79.70849136,761,,
79.73475193,725,,
79.7610125,797,,
79.78727307,720,,
79.81353364,830,,
79.83979421,686,,
79.86605478,713,,
79.89231535,782,,
79.91857592,728,,
79.94483649,704,,
79.97109706,766,,
79.99735763,736,,
80.0236182,745,,
80.04987877,735,,
80.07613934,732,,
80.10239991,728,,
80.12866048,725,,
80.15492105,751,,
80.18118162,718,,
80.20744219,680,,
80.23370276,711,,
80.25996333,733,,
80.2862239,698,,
80.31248447,734,,
80.33874504,665,,
80.36500561,693,,
80.39126618,715,,
80.41752675,690,,
80.44378732,702,,
80.47004789,675,,
80.49630846,705,,
80.52256903,716,,
80.5488296,726,,
80.57509017,717,,
80.60135074,677,,
80.62761131,743,,
80.65387188,728,,
80.68013245,743,,
80.70639302,723,,
80.73265359,688,,
80.75891416,739,,
80.78517473,679,,
80.8114353,711,,
80.83769587,712,,
80.86395644,703,,
80.89021701,809,,
80.91647758,719,,
80.94273815,718,,
80.96899872,663,,
80.99525929,729,,
81.02151986,660,,
81.04778043,688,,
81.074041,709,,
81.10030157,695,,
81.12656214,714,,
81.15282271,717,,
81.17908328,704,,
81.20534385,661,,
81.23160442,677,,
81.25786499,720,,
81.28412556,720,,
81.31038613,732,,
81.3366467,716,,
81.36290727,713,,
81.38916784,746,,
81.41542841,733,,
81.44168898,664,,
81.46794955,744,,
81.49421012,701,,
81.52047069,725,,
81.54673126,729,,
81.57299183,726,,
81.5992524,723,,
81.62551297,753,,
81.65177354,711,,
81.67803411,700,,
81.70429468,732,,
81.73055525,722,,
81.75681582,701,,
81.78307639,722,,
81.80933696,706,,
81.83559753,706,,
81.8618581,688,,
81.88811867,713,,
81.91437924,682,,
81.94063981,656,,
81.96690038,709,,
81.99316095,728,,
82.01942152,710,,
82.04568209,702,,
82.07194266,756,,
82.09820323,674,,
82.1244638,725,,
82.15072437,687,,
82.17698494,661,,
82.20324551,683,,
82.22950608,728,,
82.25576665,732,,
82.28202722,687,,
82.30828779,680,,
82.33454836,708,,
82.36080893,722,,
82.3870695,713,,
82.41333007,689,,
82.43959064,721,,
82.46585121,716,,
82.49211178,689,,
82.51837235,684,,
82.54463292,696,,
82.57089349,697,,
82.59715406,734,,
82.62341463,768,,
82.6496752,703,,
82.67593577,704,,
82.70219634,689,,
82.72845691,734,,
82.75471748,691,,
82.78097805,712,,
82.80723862,734,,
82.83349919,719,,
82.85975976,680,,
82.88602033,705,,
82.9122809,699,,
82.93854147,729,,
82.96480204,665,,
82.99106261,735,,
83.01732318,706,,
83.04358375,699,,
83.06984432,726,,
83.09610489,691,,
83.12236546,743,,
83.14862603,694,,
83.1748866,726,,
83.20114717,722,,
83.22740774,708,,
83.25366831,708,,
83.27992888,736,,
83.30618945,662,,
83.33245002,680,,
83.35871059,704,,
83.38497116,751,,
83.41123173,712,,
83.4374923,714,,
83.46375287,713,,
83.49001344,733,,
83.51627401,692,,
83.54253458,648,,
83.56879515,719,,
83.59505572,729,,
83.62131629,724,,
83.64757686,689,,
83.67383743,674,,
83.700098,725,,
83.72635857,748,,
83.75261914,728,,
83.77887971,762,,
83.80514028,702,,
83.83140085,738,,
83.85766142,732,,
83.88392199,713,,
83.91018256,749,,
83.93644313,701,,
83.9627037,694,,
83.98896427,727,,
84.01522484,649,,
84.04148541,680,,
84.06774598,699,,
84.09400655,765,,
84.12026712,708,,
84.14652769,751,,
84.17278826,628,,
84.19904883,737,,
84.2253094,676,,
84.25156997,719,,
84.27783054,733,,
84.30409111,728,,
84.33035168,720,,
84.35661225,699,,
84.38287282,714,,
84.40913339,684,,
84.43539396,706,,
84.46165453,712,,
84.4879151,713,,
84.51417567,735,,
84.54043624,735,,
84.56669681,733,,
84.59295738,686,,
84.61921795,655,,
84.64547852,685,,
84.67173909,722,,
84.69799966,701,,
84.72426023,670,,
84.7505208,696,,
84.77678137,741,,
84.80304194,699,,
84.82930251,682,,
84.85556308,670,,
84.88182365,710,,
84.90808422,665,,
84.93434479,694,,
84.96060536,689,,
84.98686593,680,,
